New EMG times,currentData_1,currentData_2,currentData_3,currentData_4,currentData_5,currentData_6,currentData_7,currentData_8,thumb,index+middle,ring+little
35:18.685,0.03,0.31,0.01,-0.03,-0.04,0.34,0.04,-0.01,96.7579854931464,148.586985492914,166.247061048089
35:18.695,0,0.03,0.01,0,-0.02,-0.09,0.09,0,96.9118371408877,148.556977750401,166.05277414828
35:18.704,0,0.03,0.01,0,-0.02,-0.09,0.09,0,97.0656887886362,148.526970007887,165.858487248464
35:18.714,0.01,0,0.05,0.02,0.2,0,0.02,0.01,97.4259211214085,148.468542734666,165.836237667392
35:18.724,0.01,0,0.05,0.02,0.2,0,0.02,0.01,97.7861534542026,148.410115461445,165.813988086319
35:18.734,0.15,0.09,-0.01,-0.01,-0.08,-0.27,-0.02,0.03,98.1463857869821,148.351688188224,165.791738505247
35:18.744,0.15,0.09,-0.01,-0.01,-0.08,-0.27,-0.02,0.03,98.5066181197544,148.293260915004,165.769488924175
35:18.754,0.01,-0.26,-0.03,-0.02,-0.12,-0.32,-0.02,-0.01,98.8668504525267,148.234833641784,165.747239343103
35:18.795,-0.06,0.01,0,0,-0.04,-0.22,-0.09,-0.05,98.7145820421756,148.431379207729,166.019400775618
35:18.804,-0.06,0.01,0,0,-0.04,-0.22,-0.09,-0.05,98.5623136318227,148.627924773677,166.291562208142
35:18.815,0,0.06,-0.01,0,-0.17,0.09,-0.2,-0.02,98.5764343234746,148.677170968585,166.384810772834
35:18.830,-0.02,-0.04,-0.02,0.03,0.09,0.21,-0.01,0.02,98.5905550151263,148.726417163494,166.478059337525
35:18.843,-0.02,-0.04,-0.02,0.03,0.09,0.21,-0.01,0.02,98.6046757067779,148.775663358402,166.571307902217
35:18.856,0,0.09,0.02,0.03,0.27,0.09,0,0.01,98.6353959087901,148.928306684765,166.704098513876
35:18.867,0.01,0.11,0,0.05,0.13,-0.08,-0.05,-0.01,98.6661161108027,149.080950011127,166.836889125532
35:18.907,-0.03,-0.19,-0.01,-0.01,-0.05,-0.71,0.02,-0.02,98.6968363128149,149.233593337492,166.969679737191
35:18.916,0,0.03,-0.02,0,-0.18,0.2,0.11,0.01,98.5904397644717,149.096855292856,166.904360089986
35:18.926,-0.04,-0.23,0,-0.05,-0.19,-0.26,-0.03,0,98.4840432161327,148.960117248218,166.839040442783
35:18.935,-0.04,-0.23,0,-0.05,-0.19,-0.26,-0.03,0,98.3776466677846,148.823379203579,166.773720795576
35:18.944,-0.04,-0.23,0,-0.05,-0.19,-0.26,-0.03,0,98.2712501194401,148.686641158939,166.708401148371
35:18.956,-0.03,-0.06,0,-0.03,0.07,0.38,-0.07,0,98.1648535710992,148.549903114304,166.643081501168
35:18.965,-0.03,-0.06,0,-0.03,0.07,0.38,-0.07,0,98.529284255008,148.391218767563,166.032039831109
35:18.974,0.08,0.3,0,0.01,0.05,0.13,0.03,-0.02,98.893714938913,148.232534420823,165.420998161062
35:19.018,-0.04,-0.34,-0.08,-0.07,-0.16,0.1,-0.07,0,98.6366471255205,148.375531674092,165.602674996317
35:19.028,-0.04,-0.34,-0.08,-0.07,-0.16,0.1,-0.07,0,98.3795793121317,148.518528927357,165.784351831564
35:19.038,0.01,-0.15,-0.06,0.02,0.14,0.18,0.05,-0.01,98.1225114987465,148.661526180622,165.966028666811
35:19.048,-0.14,-0.12,0.03,-0.01,0.03,0.06,0.07,0,97.8654436853576,148.804523433893,166.147705502066
35:19.059,-0.14,-0.12,0.03,-0.01,0.03,0.06,0.07,0,97.9480749803633,148.927050576786,166.217275530835
35:19.069,0.03,0.13,0.01,-0.03,0.02,-0.02,-0.08,-0.01,98.0307062753691,149.049577719678,166.286845559605
35:19.081,0.06,0.46,0.1,-0.01,-0.15,0.1,0,0,98.1133375703776,149.172104862572,166.356415588376
35:19.131,0.05,0.05,0,-0.01,-0.16,-0.1,-0.06,0,98.5645639491959,149.183629951147,166.522967282677
35:19.147,0.05,0.05,0,-0.01,-0.16,-0.1,-0.06,0,99.0157903280087,149.195155039722,166.689518976975
35:19.163,0.03,0.47,-0.01,0.03,0.18,0.02,0,0,99.0280722282955,148.985982733899,166.490170292036
35:19.173,-0.05,-0.8,-0.05,0,0.01,0.19,0,-0.01,99.0403541285827,148.776810428071,166.290821607094
35:19.182,-0.05,-0.8,-0.05,0,0.01,0.19,0,-0.01,99.0526360288698,148.567638122244,166.091472922148
35:19.194,0,-0.19,-0.05,0.01,0.31,0.02,-0.14,-0.02,99.0649179291563,148.358465816425,165.892124237209
35:19.243,0.08,0,0,0.04,-0.26,0.3,0.12,0.03,98.3060766501076,148.120908324087,165.729247228386
35:19.252,0.04,-0.11,0,0.04,0.04,0.42,0.07,0.02,97.547235371072,147.883350831751,165.566370219567
35:19.261,0.04,-0.11,0,0.04,0.04,0.42,0.07,0.02,97.2416341010685,147.824474318462,165.284141124426
35:19.270,0.04,-0.11,0,0.04,0.04,0.42,0.07,0.02,96.9360328310577,147.765597805175,165.001912029278
35:19.282,0.01,0.09,0.1,0,0,-0.02,-0.04,0,96.6304315610541,147.706721291886,164.719682934134
35:19.295,0.01,0.02,-0.05,-0.01,-0.09,0.08,0.04,-0.03,96.3248302910506,147.647844778598,164.437453838989
35:19.343,-0.03,-0.15,-0.06,-0.05,0.08,-0.01,0.06,-0.01,96.3126632142264,147.676872064892,164.450403278793
35:19.352,0,-0.02,-0.01,-0.04,-0.09,0.03,-0.01,0.02,96.3004961374023,147.705899351185,164.463352718597
35:19.362,0,-0.02,-0.01,-0.04,-0.09,0.03,-0.01,0.02,96.3846019572866,147.69845478897,164.531288436912
35:19.373,-0.04,0.04,-0.06,0.01,0.06,-0.03,0.03,-0.01,96.4687077771687,147.691010226755,164.599224155227
35:19.381,-0.04,0.04,-0.06,0.01,0.06,-0.03,0.03,-0.01,96.5528135970526,147.683565664541,164.667159873541
35:19.391,0,0.22,0.13,0.06,0.16,0.6,-0.03,0,96.6369194169365,147.676121102327,164.735095591856
35:19.400,0.01,0.27,0.03,0.04,-0.03,-0.03,-0.22,-0.04,96.7210252368241,147.668676540113,164.803031310174
35:19.457,0.1,0.06,0.01,0.02,0.05,-0.11,0.07,0.01,96.805131056709,147.6612319779,169.264375307634
35:19.467,-0.01,0,-0.01,0.02,-0.05,-0.21,-0.14,0,96.9327711406004,147.702776588508,165.003133753871
35:19.477,-0.03,0.26,0,0.02,0.13,0,0.03,-0.04,97.060411224491,147.744321199117,165.135300479251
35:19.486,-0.03,0.26,0,0.02,0.13,0,0.03,-0.04,97.1880513083852,147.785865809726,165.267467204634
35:19.498,0.05,-0.16,0,-0.02,-0.04,-0.02,0.11,0.02,97.3156913922794,147.827410420333,165.399633930014
35:19.508,0.05,-0.16,0,-0.02,-0.04,-0.02,0.11,0.02,97.44333147617,147.868955030941,165.531800655397
35:19.518,-0.04,-0.18,-0.05,0,-0.1,0.12,0.06,-0.02,97.5709715600629,147.910499641548,169.951149903399
35:19.561,-0.06,-0.03,0.01,0,0.12,-0.04,0,0,97.5476985403916,147.882712160464,165.506703288167
35:19.576,0.01,0.4,0.04,0.04,-0.02,0.1,-0.02,0.02,97.5244255207199,147.854924679378,165.349439195554
35:19.589,0.01,0.4,0.04,0.04,-0.02,0.1,-0.02,0.02,97.5011525010486,147.827137198293,165.19217510294
35:19.601,0.11,-0.09,-0.1,-0.07,-0.2,0.09,0,0,97.4778794813774,147.799349717208,165.034911010327
35:19.612,-0.06,0.09,0.02,-0.05,-0.13,0.07,0.06,-0.02,97.608072187938,147.875528473092,165.119973671738
35:19.622,-0.01,-0.04,-0.01,0.02,-0.05,0.06,0.07,0,97.7382648944995,147.951707228976,165.205036333148
35:19.660,-0.03,0.02,-0.03,-0.04,-0.13,-0.07,-0.01,0,97.74232531429,148.035711018104,165.255419655281
35:19.671,0,0.16,-0.05,-0.04,-0.1,-0.06,-0.01,-0.01,97.7463857340805,148.119714807232,165.305802977413
35:19.681,-0.04,-0.1,0,0.01,0,-0.1,-0.05,-0.02,97.7504461538709,148.203718596356,165.356186299545
35:19.690,-0.04,-0.1,0,0.01,0,-0.1,-0.05,-0.02,97.7545065736615,148.287722385482,165.406569621677
35:19.701,-0.04,-0.21,-0.03,0,0.13,0.07,-0.08,0,97.7585669934522,148.371726174611,165.456952943809
35:19.709,-0.04,-0.21,-0.03,0,0.13,0.07,-0.08,0,97.7626274132427,148.455729963736,165.50733626594
35:19.719,0.01,-0.22,0.04,0,0.13,0.02,-0.03,0,97.5953743109712,148.321531172558,165.484365343875
35:19.727,-0.02,0.02,0.02,-0.02,-0.21,-0.02,-0.06,-0.02,97.4281212087008,148.187332381382,165.461394421812
35:19.737,-0.03,0.02,-0.02,-0.01,-0.07,0.21,0,0,97.2608681064266,148.053133590202,165.438423499747
35:19.778,0,0.24,0.13,0,0.05,-0.06,0.01,-0.02,97.4526130811391,147.931140951237,165.322616271635
35:19.790,-0.03,0.04,-0.02,0,0.1,-0.08,0.06,0,97.6443580558625,147.809148312273,165.206809043524
35:19.799,0.01,0.14,0,0.02,-0.07,0,0.03,0,97.8361030305714,147.687155673309,165.091001815414
35:19.808,0.01,0.14,0,0.02,-0.07,0,0.03,0,98.0278480052875,147.565163034345,164.975194587299
35:19.818,0,-0.04,-0.06,-0.07,-0.27,-0.07,-0.03,-0.01,97.8016213721494,147.892009664507,165.221511700925
35:19.830,0,-0.04,-0.06,-0.07,-0.27,-0.07,-0.03,-0.01,97.5753947390149,148.218856294665,165.467828814551
35:19.842,-0.01,-0.04,-0.01,0.01,-0.02,-0.18,0.06,0.01,97.3491681058695,148.545702924839,165.714145928177
35:19.883,-0.03,0,0.05,0.03,0.06,0.12,0,0,97.8380859708777,148.629226638005,165.703646498031
35:19.891,-0.03,0,0.05,0.03,0.06,0.12,0,0,98.3270038358824,148.71275035117,165.693147067885
35:19.901,0,-0.12,-0.01,-0.02,-0.05,-0.06,0.03,0.01,98.3346289520812,148.756906174312,165.706066410388
35:19.910,0,-0.14,-0.04,-0.01,0,0.18,-0.15,0,98.34225406828,148.801061997454,165.718985752891
35:19.920,0,-0.18,0,0.01,-0.06,-0.01,0.03,0,98.3498791844788,148.845217820597,165.731905095394
35:19.931,0,0.1,0,-0.07,-0.25,-0.07,0.01,0.02,98.3575043006776,148.889373643739,165.744824437897
35:19.940,-0.02,0.07,0.13,-0.09,-0.09,-0.47,-0.21,-0.04,98.3651294168765,148.933529466882,165.757743780399
35:19.949,-0.02,0.07,0.13,-0.09,-0.09,-0.47,-0.21,-0.04,98.3727545330752,148.977685290024,170.182450816384
35:20.001,0,0.18,-0.02,-0.01,-0.02,-0.34,-0.04,-0.01,98.2593582973877,148.720357419216,165.309557919645
35:20.011,0,0.18,-0.02,-0.01,-0.02,-0.34,-0.04,-0.01,98.1459620617024,148.463029548406,164.848452716367
35:20.022,-0.01,-0.01,0,0.01,0.08,0.11,0.04,0,98.0325658260135,148.205701677604,164.387347513111
35:20.034,0,0.01,-0.03,0,-0.02,-0.08,-0.04,0,97.9191695903282,147.948373806807,163.92624230987
35:20.044,-0.01,-0.04,-0.07,0,-0.13,-0.09,0,0,98.1163265159848,147.696386798523,164.019125836345
35:20.054,-0.01,0.05,0.04,0.1,0.09,0.27,0.08,-0.01,98.3134834416451,147.444399790238,164.11200936282
35:20.063,0,-0.07,-0.01,-0.02,0.02,0.02,-0.02,-0.01,98.5106403673017,147.192412781958,164.204892889293
35:20.103,0,0.13,0.03,0,-0.03,-0.78,-0.09,0,98.2143055177294,147.21089517803,164.070831829218
35:20.110,0,0.13,0.03,0,-0.03,-0.78,-0.09,0,97.9179706681607,147.229377574101,163.936770769145
35:20.121,0.01,-0.07,-0.02,-0.05,0.02,0.09,-0.03,0,97.621635818592,147.247859970172,163.802709709074
35:20.130,0.01,-0.07,-0.02,-0.05,0.02,0.09,-0.03,0,97.3253009690234,147.266342366243,163.668648649002
35:20.138,-0.01,-0.08,-0.15,-0.02,0.01,0.33,0.02,0,97.2549098151085,147.21199358607,163.600243129434
35:20.147,-0.01,0,-0.06,-0.03,0.03,0.13,0.01,0.01,97.1845186611936,147.157644805895,163.531837609864
35:20.156,-0.01,0.13,0.01,-0.01,-0.18,0.04,0.03,0.01,97.1141275072769,147.10329602572,163.463432090293
35:20.166,-0.01,0.13,0.01,-0.01,-0.18,0.04,0.03,0.01,97.0437363533592,147.048947245544,163.395026570724
35:20.175,0.01,-0.01,0.04,0,0.06,-0.04,-0.07,0,96.9733451994425,146.994598465369,163.326621051156
35:20.215,-0.01,-0.08,0,0,0.05,0.07,0.04,-0.02,97.3286685424973,147.059433472237,163.455191328321
35:20.226,0.01,-0.01,0,-0.03,-0.06,0.47,0.03,0,97.6839918855476,147.124268479105,163.583761605485
35:20.235,-0.01,-0.14,-0.06,-0.06,-0.01,-0.53,-0.05,0,98.0393152285978,147.189103485973,163.712331882649
35:20.244,-0.01,-0.14,-0.06,-0.06,-0.01,-0.53,-0.05,0,98.3946385716481,147.25393849284,163.840902159809
35:20.253,-0.01,-0.14,-0.06,-0.06,-0.01,-0.53,-0.05,0,98.8761891075774,147.177691464014,163.494506818908
35:20.263,0,-0.08,0.08,0,0.03,0.39,-0.01,0,99.3577396434921,147.101444435187,163.148111478011
35:20.277,0.01,0.26,0.04,0,-0.02,0.03,0.09,0.02,99.8392901794214,147.025197406361,162.80171613711
35:20.285,0,0,0.08,0.03,0.06,0.07,0.03,0,100.32084071534,146.948950377534,162.455320796213
35:20.341,0,0,-0.05,0.05,0.06,0,0.06,-0.02,100.11842571677,147.080244592632,162.387015256274
35:20.353,0.01,-0.08,0,-0.01,0.04,-0.08,0.08,0,99.9160107182033,147.211538807729,162.318709716337
35:20.362,0.01,-0.08,0,-0.01,0.04,-0.08,0.08,0,99.7135957196333,147.342833022828,162.250404176399
35:20.374,-0.01,-0.01,0.02,-0.01,0.03,0.06,0.04,0.01,99.5111807210633,147.474127237926,162.18209863646
35:20.386,0,-0.03,0.01,0,0.01,-0.49,-0.01,-0.01,99.3087657224969,147.605421453022,162.113793096523
35:20.436,0,-0.02,-0.04,-0.01,0.03,0.1,0.05,-0.01,99.1063507239274,147.736715668121,166.513881133202
35:20.446,0,-0.02,-0.04,-0.01,0.03,0.1,0.05,-0.01,100.713000006159,147.523993196663,161.960218666789
35:20.455,0,-0.03,0,0.01,0.11,0.04,0.03,0.03,102.319649288489,147.311270725209,161.874949776986
35:20.465,-0.01,0.02,0.01,-0.01,-0.1,0.12,0.07,-0.02,103.926298570761,147.098548253754,161.789680887188
35:20.476,-0.01,-0.03,0,-0.01,-0.07,-0.13,-0.13,0,105.532947853033,146.885825782298,161.704411997391
35:20.485,-0.01,-0.03,0,-0.01,-0.07,-0.13,-0.13,0,107.139597135305,146.673103310845,161.619143107595
35:20.495,-0.01,-0.06,-0.13,-0.03,-0.03,0.13,-0.03,0,108.746246417635,146.460380839385,161.533874217796
35:20.537,-0.02,-0.03,0,0.01,0.05,0.05,-0.01,-0.02,110.352895699898,146.247658367929,167.501601943485
35:20.547,-0.02,-0.03,0,0.01,0.05,0.05,-0.01,-0.02,110.196279907155,146.201104072728,161.332961434997
35:20.556,-0.02,-0.03,0,0.01,0.05,0.05,-0.01,-0.02,110.039664114403,146.154549777526,161.217317541992
35:20.565,0,0.04,0.02,-0.03,0,0.44,-0.01,-0.02,109.883048321652,146.107995482323,161.101673648987
35:20.575,0,0.04,0.02,-0.03,0,0.44,-0.01,-0.02,109.726432528903,146.061441187123,160.986029755983
35:20.585,0,0.01,-0.01,-0.03,-0.02,-0.02,-0.02,0.01,109.569816736155,146.014886891921,160.870385862974
35:20.593,0,-0.01,0.16,0.05,0.06,0.38,-0.03,0,109.413200943414,145.96833259672,160.754741969971
35:20.602,0,-0.01,0.16,0.05,0.06,0.38,-0.03,0,109.256585150666,145.921778301518,160.639098076968
35:20.610,-0.01,0.01,0.02,-0.07,-0.06,-0.17,0.03,-0.01,109.408077715492,145.762069860977,160.449585926301
35:20.651,0,0,0.01,0.02,-0.1,-0.54,-0.04,-0.01,109.559570280322,145.602361420433,160.260073775633
35:20.661,0,-0.02,-0.02,0.01,-0.03,-0.49,0.04,0,110.180901337328,145.782768193822,160.225898707556
35:20.670,0,-0.02,-0.02,0.01,-0.03,-0.49,0.04,0,110.802232394315,145.963174967201,160.191723639478
35:20.682,0,0,0.01,-0.02,-0.08,-0.07,0.03,-0.03,111.423563451332,146.143581740593,160.1575485714
35:20.691,0,0,0.01,-0.02,-0.08,-0.07,0.03,-0.03,112.044894508334,146.323988513983,160.123373503322
35:20.701,0,-0.04,-0.06,-0.05,-0.07,0.56,0,-0.01,112.666225565306,146.504395287368,160.089198435246
35:20.709,0,-0.04,-0.06,-0.05,-0.07,0.56,0,-0.01,113.437971217878,146.384771438253,159.587134423167
35:20.720,0,0,-0.01,-0.05,-0.05,-0.05,-0.07,-0.01,114.209716870442,146.265147589139,159.085070411093
35:20.772,0,-0.01,-0.01,-0.06,-0.03,0.04,-0.08,-0.03,114.918962293814,146.283230857878,159.034618441823
35:20.782,-0.01,0.01,-0.02,0.02,0,-0.04,-0.01,0.01,115.628207717207,146.301314126617,158.984166472554
35:20.790,-0.01,0.01,-0.02,0.02,0,-0.04,-0.01,0.01,116.337453140586,146.319397395356,158.933714503285
35:20.801,0,-0.02,-0.04,-0.03,0.03,-0.07,0.01,-0.01,117.04669856395,146.337480664096,158.883262534016
35:20.810,0,-0.02,-0.04,-0.03,0.03,-0.07,0.01,-0.01,117.755943987329,146.355563932836,158.832810564748
35:20.819,0,-0.01,0.02,0.03,-0.03,-0.4,0.03,0.02,118.35079039933,146.181557180262,158.679494753098
35:20.828,0,-0.01,-0.02,-0.01,0.02,-0.07,0.02,0,118.945636811331,146.007550427689,158.526178941449
35:20.870,0,0,-0.04,-0.03,0.01,0.04,0,0,119.22708169603,145.919321425987,158.385334894319
35:20.880,-0.03,0.01,0.04,0,0,-0.03,-0.29,-0.03,119.508526580728,145.831092424286,158.244490847195
35:20.889,-0.03,0.01,0.04,0,0,-0.03,-0.29,-0.03,119.789971465427,145.742863422586,158.103646800071
35:20.900,-0.01,0,-0.03,-0.01,-0.02,0.01,0.07,-0.04,120.071416350132,145.65463442088,157.962802752936
35:20.908,-0.01,0,-0.03,-0.01,-0.02,0.01,0.07,-0.04,120.352861234831,145.566405419179,157.821958705808
35:20.919,0,-0.02,0,-0.03,-0.08,-0.14,0.02,-0.02,120.800888988197,145.931591180071,158.144661883671
35:20.928,0,-0.02,0,-0.03,-0.08,-0.14,0.02,-0.02,121.248916741562,146.296776940962,158.467365061537
35:20.938,-0.01,-0.01,-0.02,0,0.14,0.14,-0.05,-0.04,121.696944494928,146.661962701848,158.790068239388
35:20.987,0,0,0.02,0.02,0.09,-0.18,0.07,0,124.010525388614,146.903754303636,158.823439181384
35:20.996,0,-0.01,0,-0.02,0,-0.86,-0.09,0.02,126.324106282322,147.145545905427,158.85681012338
35:21.005,0,0.01,0.04,-0.01,-0.03,0.01,-0.02,-0.02,128.637687175942,147.387337507205,158.890181065376
35:21.015,-0.01,-0.02,0,-0.03,-0.07,0.09,-0.3,-0.01,130.217358156719,147.459007681979,159.087163488348
35:21.026,-0.01,0,0,0,0.02,-0.22,0.04,0.01,131.797029137495,147.530677856753,159.284145911319
35:21.039,0.01,0.01,-0.02,0.01,0.06,0.3,-0.02,0,133.376700118271,147.602348031525,159.481128334293
35:21.048,0,-0.05,0.12,0,0,-0.1,-0.05,-0.01,134.95637109899,147.674018206297,159.678110757261
35:21.090,-0.01,-0.03,-0.11,-0.02,0.02,0.3,0.08,0.01,134.177452519507,147.514720599169,159.605221481095
35:21.099,-0.01,-0.03,-0.11,-0.02,0.02,0.3,0.08,0.01,133.398533940039,147.355422992044,159.53233220493
35:21.109,0,0.04,0.01,0.03,0.05,0.01,-0.03,0,133.696760411669,147.329075146959,159.658806274949
35:21.120,0,0,0,-0.03,-0.08,0.01,0.01,0,133.994986883292,147.302727301872,159.785280344968
35:21.131,0,0,0.01,0,0.01,0.08,0.07,0.01,134.293213354918,147.276379456785,159.911754414985
35:21.141,0,0,-0.01,-0.01,-0.05,-0.37,-0.08,-0.01,134.59143982656,147.250031611699,160.038228485006
35:21.150,0,0,-0.01,-0.01,-0.05,-0.37,-0.08,-0.01,134.889666298183,147.223683766615,166.600071976806
35:21.208,-0.01,-0.01,-0.03,-0.01,0.01,-0.3,0.04,0,134.3938189482,147.432505475917,160.499082652248
35:21.218,0,0.01,0,-0.02,-0.07,-0.14,-0.02,0.01,133.897971598213,147.64132718522,160.833462749462
35:21.228,0,0.01,0,-0.02,-0.07,-0.14,-0.02,0.01,133.402124248227,147.850148894522,161.167842846684
35:21.240,0,0.01,0,-0.01,0,0.39,0,0,132.90627689824,148.058970603828,161.502222943906
35:21.249,0,0.01,0,-0.01,0,0.39,0,0,132.410429548254,148.267792313135,161.836603041127
35:21.259,-0.01,-0.01,-0.01,-0.01,-0.01,0.16,0.06,0,133.045867122695,148.485797360014,162.216578753239
35:21.268,0,-0.01,-0.01,-0.01,0.03,-0.16,-0.06,0,133.681304697144,148.703802406894,162.596554465355
35:21.312,0,0,-0.05,0,0.04,-0.38,0.02,0.01,133.721399458658,148.715233568351,162.619487489075
35:21.322,0,0.02,-0.01,-0.02,-0.04,0.21,0,0,133.761494220173,148.726664729808,162.642420512794
35:21.333,0,0,0,-0.01,-0.03,-0.28,-0.15,0,133.801588981688,148.738095891266,162.665353536514
35:21.342,0.01,0.01,0.14,0,0,0.02,-0.07,0,133.841683743201,148.749527052723,162.688286560234
35:21.351,0.01,0.01,0.14,0,0,0.02,-0.07,0,134.095296070431,148.657401559674,162.698733410881
35:21.360,0,0.01,-0.04,0,-0.03,0.05,-0.01,-0.03,134.34890839766,148.565276066623,162.709180261529
35:21.369,0.01,0,0,-0.02,-0.07,0.03,0.02,0,134.602520724889,148.473150573574,162.719627112177
35:21.379,0,0,-0.02,-0.01,0.01,0,-0.01,0.01,134.856133052119,148.381025080525,162.730073962825
35:21.421,-0.01,-0.02,-0.03,0,0.07,-0.27,-0.08,-0.01,134.919333981449,148.123315956069,162.567012503665
35:21.431,-0.01,-0.02,-0.03,0,0.07,-0.27,-0.08,-0.01,134.982534910779,147.865606831616,162.403951044504
35:21.439,0.02,0.03,0.02,0.03,0.08,0.25,0.19,0.01,135.045735840108,147.607897707163,162.240889585348
35:21.448,0,-0.01,-0.02,0,0.02,0.11,0.01,0.04,136.118404706707,147.569253926511,162.348853308717
35:21.457,0,0.03,0.05,0.02,0.06,0.11,0,0.01,137.191073573311,147.530610145858,162.456817032082
35:21.467,0,0.03,0.05,0.02,0.06,0.11,0,0.01,138.263742439944,147.491966365206,162.564780755452
35:21.478,-0.01,-0.01,0.04,0.01,0.01,-0.08,-0.02,-0.04,139.336411306576,147.453322584555,162.672744478821
35:21.487,-0.01,-0.04,-0.07,0,0.03,-0.41,-0.12,-0.03,140.40908017318,147.414678803903,162.78070820219
35:21.527,-0.01,-0.04,-0.07,0,0.03,-0.41,-0.12,-0.03,140.248032183063,147.623633357426,163.11533592339
35:21.537,-0.01,-0.04,-0.07,0,0.03,-0.41,-0.12,-0.03,140.086984192949,147.832587910949,163.449963644583
35:21.547,0.02,0.01,0,-0.02,-0.09,-0.24,0.03,0.02,140.123402636096,147.823993014995,163.516495834441
35:21.564,0,-0.01,-0.03,0,0.01,0.14,0.01,0.02,140.159821079244,147.81539811904,163.583028024299
35:21.576,0,-0.01,-0.08,-0.06,-0.05,-0.02,-0.02,-0.02,140.196239522391,147.806803223087,163.649560214157
35:21.588,0,-0.01,-0.08,-0.06,-0.05,-0.02,-0.02,-0.02,140.99692265693,148.097328607513,164.226743068997
35:21.634,0,0,0.05,0,-0.01,-0.26,-0.01,0,141.797605791478,148.387853991942,164.80392592385
35:21.643,0,0.03,0.04,0.01,0,0.17,-0.09,0,142.182364847176,148.342809014853,164.745902688257
35:21.654,0,0.03,0.04,0.01,0,0.17,-0.09,0,142.56712390286,148.297764037764,164.687879452664
35:21.664,-0.01,-0.01,0.04,0.04,-0.04,-0.47,-0.13,-0.04,142.951882958558,148.252719060675,164.629856217069
35:21.674,-0.01,-0.01,0.04,0.04,-0.04,-0.47,-0.13,-0.04,143.336642014241,148.207674083587,164.571832981474
35:21.683,-0.01,0,0.01,-0.01,-0.09,0.02,-0.02,0.01,143.721401069946,148.162629106497,164.513809745877
35:21.691,-0.01,0,0.01,-0.01,-0.09,0.02,-0.02,0.01,144.106160125644,148.117584129407,164.455786510282
35:21.701,0,0.02,0.01,-0.03,0,-0.52,-0.08,0,144.490919181361,148.072539152316,171.729152750702
35:21.744,0,0,-0.03,-0.01,0.01,0.17,0.09,0,145.424095107039,148.033956478332,164.618332070811
35:21.754,0,0,-0.03,0,0.01,0.07,-0.02,-0.01,146.357271032728,147.995373804346,164.83890086694
35:21.763,0,-0.01,-0.03,0.12,0.27,-0.09,0.05,0.01,147.290446958417,147.956791130363,165.059469663065
35:21.775,0,-0.01,-0.03,0.12,0.27,-0.09,0.05,0.01,148.223622884092,147.918208456382,165.28003845919
35:21.783,-0.02,-0.02,-0.04,-0.09,-0.12,-0.13,-0.01,-0.02,149.156798809767,147.879625782398,165.500607255311
35:21.793,-0.02,-0.02,-0.04,-0.09,-0.12,-0.13,-0.01,-0.02,149.659588648821,147.866633441474,165.555487784788
35:21.803,-0.01,-0.03,0.03,-0.03,-0.04,0.21,0.06,0,150.162378487876,147.853641100548,165.610368314263
35:21.814,0,0.04,0.03,-0.02,0,0.06,0.05,0,150.665168326945,147.840648759622,165.66524884374
35:21.864,0,0.01,-0.01,-0.03,-0.11,-0.11,-0.06,-0.01,150.132729997356,148.047786515739,165.823811899256
35:21.874,0,0,0,-0.02,-0.02,-0.05,0.07,0.02,149.600291667753,148.25492427186,165.982374954774
35:21.884,0,0,0,-0.02,-0.02,-0.05,0.07,0.02,149.726242982513,148.184775433376,165.849012366019
35:21.893,-0.02,-0.04,-0.05,0.04,0,-0.33,-0.07,-0.02,149.852194297266,148.114626594893,165.71564977727
35:21.902,0.01,0,0,-0.05,-0.02,0.14,-0.03,0,149.978145612022,148.044477756409,165.582287188518
35:21.912,0.01,0,0,-0.05,-0.02,0.14,-0.03,0,150.10409692678,147.974328917925,165.448924599765
35:21.921,0.01,0.04,0.09,0.02,-0.01,0.09,0,0,150.230048241541,147.904180079438,165.315562011006
35:21.960,-0.01,-0.04,-0.05,-0.08,-0.12,-0.17,0,0,150.069780231241,148.096320498037,165.429073026233
35:21.971,-0.01,-0.04,-0.05,-0.08,-0.12,-0.17,0,0,149.909512220933,148.288460916642,165.542584041461
35:21.980,0,-0.01,-0.01,-0.01,-0.02,0.19,0.07,0,149.74924421063,148.480601335245,165.656095056689
35:21.989,0,-0.01,-0.01,-0.01,-0.02,0.19,0.07,0,149.588976200328,148.672741753844,165.769606071915
35:21.998,-0.01,0,0,-0.03,-0.01,-0.18,0.03,0,149.797872713418,148.796971917915,165.807807905067
35:22.009,0,-0.01,-0.02,0.04,0.02,0.2,0.02,0,150.0067692265,148.921202081985,165.846009738217
35:22.019,0,-0.01,0.02,0.01,0.04,0.36,0.02,0.01,150.21566573959,149.045432246061,165.884211571368
35:22.028,-0.02,0.02,0.05,0,-0.03,-0.22,-0.09,-0.02,150.424562252676,149.16966241013,165.922413404517
35:22.068,-0.01,0.01,0.12,-0.02,-0.06,-0.04,-0.07,-0.02,150.596328525369,149.016401327212,165.876055405622
35:22.077,0.01,-0.02,-0.09,-0.02,-0.02,-0.25,-0.01,0.01,150.768094798066,148.863140244292,165.829697406726
35:22.088,0.01,-0.02,-0.09,-0.02,-0.02,-0.25,-0.01,0.01,150.769433304892,148.769122256359,165.749319443539
35:22.097,0.01,-0.02,-0.09,-0.02,-0.02,-0.25,-0.01,0.01,150.770771811718,148.675104268429,165.668941480355
35:22.109,0,0,0.01,-0.03,0,0.04,0.04,-0.01,150.772110318543,148.581086280496,165.588563517167
35:22.118,0,0,0.01,-0.03,0,0.04,0.04,-0.01,150.773448825369,148.487068292564,165.508185553979
35:22.127,-0.01,-0.01,-0.08,-0.06,-0.07,-0.09,-0.01,-0.01,150.774787332194,148.393050304634,165.427807590793
35:22.136,0,-0.05,-0.04,-0.01,-0.04,0.44,-0.01,0,150.77612583902,148.299032316705,171.224667917631
35:22.183,0,0,-0.02,-0.01,0,0.15,-0.02,0,150.656504446164,148.442757701106,165.53678749254
35:22.200,-0.01,0.01,0.04,-0.02,0.01,0.06,-0.05,-0.02,150.536883053308,148.586483085506,165.726145357472
35:22.212,-0.01,0.01,0.04,-0.02,0.01,0.06,-0.05,-0.02,150.417261660448,148.730208469909,165.915503222412
35:22.224,0,-0.01,-0.02,0,-0.06,-0.05,-0.06,-0.03,150.237116245513,148.761278057657,166.02383792408
35:22.234,-0.01,0.01,0.08,-0.03,0,-0.16,-0.04,0,150.056970830581,148.792347645406,166.132172625748
35:22.245,-0.01,-0.01,-0.03,-0.01,-0.03,-0.33,0.06,0.01,149.876825415638,148.823417233156,166.240507327422
35:22.288,0,-0.01,0.01,0.03,0.12,0.03,-0.01,0.01,150.069262040182,148.660446676172,166.053343511783
35:22.300,-0.01,-0.01,-0.09,-0.03,-0.07,-0.11,-0.02,-0.02,150.261698664726,148.49747611919,165.86617969615
35:22.309,-0.01,-0.01,-0.09,-0.03,-0.07,-0.11,-0.02,-0.02,150.45413528927,148.334505562207,165.679015880516
35:22.319,0,-0.02,-0.03,0,-0.03,-0.18,-0.08,-0.02,150.45204703906,148.36624704241,165.838941133217
35:22.331,0,-0.02,-0.03,0,-0.03,-0.18,-0.08,-0.02,150.449958788849,148.397988522614,165.998866385919
35:22.340,0.01,0,0.02,0.03,0.22,0.23,0.02,0.01,150.447870538639,148.429730002818,166.158791638616
35:22.352,-0.02,0,-0.04,0.02,0.02,-0.09,-0.08,-0.04,150.445782288428,148.46147148302,166.318716891317
35:22.393,0,0.01,0.12,-0.01,-0.05,0.01,0,0,150.730120360284,148.299474537432,166.1324263685
35:22.402,-0.01,-0.01,-0.05,-0.03,-0.02,-0.03,-0.08,-0.01,151.014458432142,148.13747759184,165.946135845679
35:22.412,-0.01,-0.01,-0.05,-0.03,-0.02,-0.03,-0.08,-0.01,150.92424381791,148.08107917635,166.007599441844
35:22.423,0,-0.01,-0.04,0,0,0.2,0.03,0,150.834029203677,148.02468076086,166.069063038007
35:22.432,0,-0.01,-0.04,0,0,0.2,0.03,0,150.743814589443,147.96828234537,166.130526634171
35:22.443,0,-0.03,-0.11,0.03,-0.04,-0.22,-0.1,0,150.65359997521,147.911883929881,166.191990230335
35:22.452,0,-0.03,-0.11,0.03,-0.04,-0.22,-0.1,0,150.563385360978,147.855485514392,166.253453826499
35:22.462,-0.01,0,-0.01,0.01,0.05,-0.25,-0.01,0,150.473170746746,147.799087098903,171.418414902789
35:22.516,0,0,-0.01,-0.02,0,0.33,0.18,0,150.503885615263,147.679151740913,166.199148487633
35:22.526,0,0.01,0.02,-0.01,-0.01,-0.11,0.04,-0.02,150.534600483781,147.559216382927,166.083379552598
35:22.537,0,0.01,0.02,-0.01,-0.01,-0.11,0.04,-0.02,150.565315352299,147.439281024938,165.967610617568
35:22.547,0,0.01,0.02,-0.01,-0.01,-0.11,0.04,-0.02,150.596030220816,147.319345666948,165.851841682539
35:22.556,-0.01,-0.01,-0.02,-0.02,0,-0.1,-0.24,-0.04,151.084486265907,147.32581062773,166.002282934007
35:22.566,-0.01,-0.01,0,-0.02,-0.03,-0.15,0.03,0.01,151.572942310973,147.332275588511,166.152724185471
35:22.575,0,0,0.02,0.04,0.01,0.28,0.01,0.02,152.061398356076,147.338740549293,166.303165436944
35:22.618,0,0,-0.02,0.02,0.02,-0.04,0.06,0,152.53631797956,147.551129646519,166.474538194918
35:22.631,-0.02,-0.02,-0.09,-0.03,-0.03,-0.16,0.01,-0.02,153.011237603045,147.763518743743,166.645910952895
35:22.642,-0.02,-0.01,0.01,0,0.02,-0.35,-0.07,0,153.486157226536,147.975907840968,166.817283710869
35:22.651,0,0,-0.03,-0.01,-0.02,0.42,0,0,153.961076850035,148.188296938197,166.98865646885
35:22.660,0,0,-0.03,-0.01,-0.02,0.42,0,0,154.257037723968,148.38969398869,166.91376304036
35:22.670,0,-0.01,0,-0.04,-0.13,-0.1,0.05,-0.02,154.552998597894,148.591091039177,166.838869611872
35:22.680,0,-0.01,0.05,0.01,-0.03,0.35,0.03,-0.03,154.84895947183,148.792488089673,166.763976183383
35:22.719,0,0,-0.02,0,-0.01,0,0.01,0,154.907109669545,148.714862186093,166.848020546249
35:22.730,0,0.01,-0.01,0.07,0.12,0.14,0,0.02,154.965259867258,148.637236282517,166.932064909117
35:22.739,-0.02,0.01,0.01,-0.04,-0.05,0.37,0.13,0,155.023410064972,148.559610378938,167.016109271981
35:22.751,-0.03,0.03,0.07,0.01,-0.02,-0.42,0.03,-0.02,155.081560262687,148.481984475358,167.100153634849
35:22.759,0,0.01,0.25,-0.01,0,0.18,0,0,155.139710460401,148.40435857178,167.184197997714
35:22.769,0,0.01,0.25,-0.01,0,0.18,0,0,155.183489089995,148.406298145413,167.250913910645
35:22.779,0,0.01,0.25,-0.01,0,0.18,0,0,155.227267719589,148.408237719046,167.317629823572
35:22.789,0,-0.01,-0.05,0,-0.02,-0.31,-0.04,0,155.271046349183,148.41017729268,167.384345736504
35:22.832,-0.01,0,-0.09,-0.05,-0.02,0.05,-0.1,-0.04,155.248622737672,148.457131163336,167.428705780209
35:22.844,0,0,0.03,-0.01,0.03,-0.06,-0.01,0,155.22619912616,148.504085033993,167.473065823914
35:22.854,0,0,0.03,-0.01,0.03,-0.06,-0.01,0,155.20377551465,148.551038904648,167.517425867619
35:22.864,0,0,-0.02,0.08,0.04,0.04,-0.14,-0.01,155.298317440787,148.741271301782,167.632782246137
35:22.873,0,0,-0.02,0.08,0.04,0.04,-0.14,-0.01,155.392859366928,148.931503698912,167.748138624662
35:22.883,-0.01,-0.02,-0.09,-0.03,0.08,-0.49,-0.03,0.01,155.487401293063,149.121736096042,167.863495003179
35:22.892,-0.01,-0.02,-0.09,-0.03,0.08,-0.49,-0.03,0.01,155.5819432192,149.31196849317,167.978851381698
35:22.900,0,-0.02,-0.01,-0.02,-0.02,0.34,0.06,0,155.676485145335,149.502200890298,168.094207760216
35:22.952,0,0,0,0.02,-0.04,-0.42,0.04,0,155.92438317374,149.616292294511,168.198172365239
35:22.963,0,-0.01,0,-0.01,0,0.28,0.04,0,156.172281202145,149.730383698725,168.302136970263
35:22.974,0,-0.01,0,-0.01,0,0.28,0.04,0,156.3029552229,149.641392088026,168.109360591203
35:22.983,-0.01,0,-0.03,-0.02,-0.04,-0.1,-0.08,-0.05,156.433629243653,149.552400477331,167.916584212144
35:22.992,-0.01,0,-0.03,-0.02,-0.04,-0.1,-0.08,-0.05,156.564303264404,149.463408866633,167.723807833092
35:23.001,-0.02,-0.03,-0.05,-0.03,0,0.11,-0.1,-0.03,156.694977285157,149.374417255935,167.531031454037
35:23.010,0,0,0,0.02,0.01,-0.1,0,0,156.825651305911,149.285425645236,167.338255074974
35:23.050,-0.01,-0.02,-0.04,-0.06,-0.03,0.28,-0.15,0.01,156.900807574165,149.031647678368,167.132541592935
35:23.063,0,0,0.06,-0.02,-0.03,-0.08,0.12,0.01,156.975963842422,148.777869711501,166.926828110893
35:23.072,0,0,0.06,-0.02,-0.03,-0.08,0.12,0.01,157.051120110675,148.524091744637,166.721114628857
35:23.081,0,0.02,0.02,-0.04,-0.09,0,-0.03,0,157.353276131194,148.508059722714,166.613810789071
35:23.090,-0.01,0,0.05,0,-0.09,-0.11,-0.09,0,157.655432151711,148.492027700793,166.506506949288
35:23.100,0,-0.03,-0.09,-0.02,-0.05,0.04,0.02,0,157.957588172219,148.475995678871,166.399203109504
35:23.110,0,-0.01,-0.02,0.04,0.08,0.21,0,-0.01,158.259744192736,148.459963656949,166.291899269718
35:23.117,0,0,-0.01,-0.01,0.04,0.32,-0.1,-0.03,158.561900213259,148.443931635027,166.184595429928
35:23.158,0,-0.01,-0.01,-0.05,-0.06,0.28,0.04,-0.01,158.823126962765,148.556218851014,166.351759779058
35:23.169,0,-0.01,-0.07,0.02,-0.03,0.07,0.08,-0.01,159.084353712278,148.668506067002,166.518924128191
35:23.178,0,-0.01,-0.07,0.02,-0.03,0.07,0.08,-0.01,159.345580461792,148.780793282993,166.686088477323
35:23.187,0,-0.01,-0.03,-0.05,-0.02,-0.05,0.06,0.01,159.498270891268,148.648174796345,166.482197465233
35:23.196,0,-0.01,-0.03,-0.05,-0.02,-0.05,0.06,0.01,159.650961320742,148.515556309697,166.278306453154
35:23.209,0,0,-0.05,0,0.01,0.53,-0.02,0.01,159.803651750219,148.382937823045,166.074415441064
35:23.220,0.01,0,0,-0.03,-0.03,0.13,-0.02,-0.02,159.956342179696,148.250319336397,165.87052442897
35:23.231,0,0,-0.03,-0.03,-0.04,-0.11,-0.06,-0.01,160.109032609169,148.117700849751,165.666633416884
35:23.273,0,0,-0.03,-0.03,-0.04,-0.11,-0.06,-0.01,160.113219934877,148.162185582631,166.002916141457
35:23.284,-0.02,0.01,0.03,0.02,-0.01,-0.3,-0.2,-0.04,160.117407260585,148.206670315512,166.339198866037
35:23.294,-0.02,0.01,0.03,0.02,-0.01,-0.3,-0.2,-0.04,160.121594586293,148.251155048393,166.675481590602
35:23.304,0,-0.03,-0.08,-0.03,-0.1,-0.24,0.02,0,159.95796534972,148.25704413021,166.564543174887
35:23.313,0,-0.03,-0.08,-0.03,-0.1,-0.24,0.02,0,159.794336113147,148.262933212029,166.453604759172
35:23.322,-0.01,-0.01,0,-0.05,0,-0.09,-0.03,-0.01,159.630706876571,148.268822293845,166.342666343458
35:23.334,0,0.01,0.07,0.03,0.04,-0.04,0.08,0.02,159.467077639994,148.274711375665,166.231727927743
35:23.382,-0.01,-0.01,-0.05,-0.02,-0.07,-0.3,-0.03,-0.02,159.762400290598,148.16270119176,166.18375275883
35:23.394,-0.01,-0.01,-0.05,-0.02,-0.07,-0.3,-0.03,-0.02,160.057722941208,148.050691007854,166.135777589917
35:23.404,0,-0.01,-0.04,-0.06,-0.02,0.09,-0.04,0.01,160.303764734857,148.005357070539,166.100148663366
35:23.414,0,-0.02,0,-0.03,0.01,-0.09,0.11,0,160.549806528514,147.960023133227,166.064519736816
35:23.425,0,-0.02,0,-0.03,0.01,-0.09,0.11,0,160.795848322159,147.914689195911,166.028890810264
35:23.440,-0.01,0,-0.01,-0.04,-0.01,0.11,-0.02,0.01,161.041890115797,147.869355258597,165.993261883712
35:23.449,0,-0.04,-0.15,0.01,-0.01,-0.11,-0.02,0,161.28793190945,147.824021321281,165.957632957158
35:23.491,-0.01,0,0.01,0.02,0.02,-0.04,-0.2,-0.05,161.533973703097,147.778687383967,171.218734164248
35:23.502,0,0,0,0,-0.01,-0.04,-0.02,0,161.149509272094,147.671873191306,165.892573420305
35:23.516,0,0,0,0,-0.01,-0.04,-0.02,0,160.765044841093,147.565058998645,165.863142810003
35:23.529,-0.01,0,-0.01,0.02,0.01,-0.06,-0.12,-0.03,160.380580410092,147.458244805985,165.833712199701
35:23.541,-0.01,0,0,0,-0.01,-0.04,-0.01,-0.01,159.996115979076,147.351430613324,165.804281589398
35:23.551,0,-0.03,-0.07,0,-0.02,0.02,0.05,0.02,159.928926107341,147.234199426583,165.854227082829
35:23.593,0,0,0.03,0.04,0.03,0.07,0.04,0,159.861736235606,147.116968239841,165.90417257626
35:23.602,-0.01,0,0.03,-0.03,-0.04,-0.1,0.07,0.01,159.85631761288,147.026198795033,165.815961511751
35:23.612,0.01,-0.03,-0.02,0.01,0.08,-0.02,0.13,0.02,159.850898990154,146.935429350226,165.72775044724
35:23.621,0,0,0.01,0.01,0.02,-0.06,0.05,0.01,159.845480367428,146.84465990542,165.639539382733
35:23.631,0,0.01,0.03,-0.03,-0.04,0.07,0,0,159.840061744702,146.753890460613,165.551328318224
35:23.643,0,0.01,0.03,-0.03,-0.04,0.07,0,0,159.834643121976,146.663121015806,165.463117253716
35:23.652,0,0,0,0.01,0.04,0.26,0,-0.03,159.82922449925,146.572351570996,165.374906189205
35:23.662,-0.02,0,0.03,0,-0.03,-0.07,-0.05,-0.02,159.823805876524,146.481582126188,170.534710423264
35:23.705,0,0.02,-0.06,0.01,-0.04,-0.35,-0.01,-0.01,159.747409180507,146.528958918737,165.319040171305
35:23.720,0.01,0.01,0.04,0.01,0.02,0.02,0.04,0.02,159.67101248449,146.576335711283,165.351385217915
35:23.736,-0.02,-0.02,-0.03,-0.04,0.02,0.43,0.11,0,159.594615788474,146.62371250383,165.383730264523
35:23.747,0,-0.04,-0.07,0.02,0.05,0.1,0.02,0.01,159.518219092457,146.671089296378,165.416075311134
35:23.757,0,-0.04,-0.07,0.02,0.05,0.1,0.02,0.01,159.317554325255,146.806155770497,165.364610968897
35:23.767,0,-0.02,-0.09,-0.01,0,0.21,-0.02,0.01,159.11688955805,146.941222244614,165.31314662666
35:23.806,-0.01,0,-0.01,0,0,0.09,-0.08,-0.02,159.245361062722,146.908441916523,165.297165411006
35:23.816,-0.01,0,-0.01,0,0,0.09,-0.08,-0.02,159.373832567388,146.875661588432,165.281184195353
35:23.826,0,-0.01,0.01,-0.03,-0.06,-0.51,0.03,-0.01,159.502304072063,146.842881260339,165.265202979699
35:23.837,0,-0.01,0.01,-0.03,-0.06,-0.51,0.03,-0.01,159.630775576738,146.810100932248,165.249221764045
35:23.847,-0.01,-0.01,-0.02,0,-0.03,0.02,-0.01,-0.02,159.759247081405,146.777320604157,165.233240548392
35:23.857,-0.01,-0.01,-0.02,0,-0.03,0.02,-0.01,-0.02,159.953781514942,146.926330840466,165.383279744849
35:23.867,0.01,0.01,0.08,0.01,0.02,0.07,0.1,0.04,160.148315948478,147.075341076777,165.533318941307
35:23.878,0,0.01,-0.04,0.03,0.01,-0.04,0.07,0,160.342850382018,147.224351313092,165.683358137765
35:23.920,0,-0.01,0.01,-0.02,-0.01,0.28,0.02,0.01,160.446058937305,147.124982179975,165.463227760909
35:23.932,-0.01,0.01,0.09,0,0.04,0.08,-0.1,0,160.549267492595,147.025613046857,165.243097384049
35:23.942,-0.01,0.01,0.09,0,0.04,0.08,-0.1,0,160.652476047882,146.926243913742,165.022967007197
35:23.952,-0.01,-0.04,-0.18,-0.02,0,-0.18,0,-0.01,160.649538745723,146.929710378985,165.011127407213
35:23.962,-0.01,-0.04,-0.18,-0.02,0,-0.18,0,-0.01,160.646601443563,146.933176844229,164.999287807228
35:23.973,0,0.03,0.07,0.02,-0.01,-0.17,-0.01,0,160.643664141403,146.936643309472,164.987448207244
35:23.986,-0.01,0.01,0.01,-0.03,-0.01,-0.04,-0.25,-0.03,160.640726839243,146.940109774716,164.97560860726
35:24.041,0,-0.06,-0.05,-0.03,-0.02,-0.05,0.06,0,160.637789537083,146.943576239959,170.674793809602
35:24.055,0,-0.01,0,0,0,0.12,0.09,0,160.355413768459,146.947246441278,165.019039055704
35:24.063,0,0,-0.08,-0.01,0,0.05,0,-0.01,160.073037999835,146.950916642597,165.074309104131
35:24.072,0,-0.02,-0.07,-0.02,-0.02,0.13,0.05,-0.03,159.790662231208,146.954586843916,165.12957915256
35:24.082,0,0,-0.09,0,0,-0.11,-0.06,0.01,159.508286462584,146.958257045235,165.184849200987
35:24.091,0,-0.02,-0.04,0.01,0,0.01,0.02,0,159.273870908197,147.033196622228,165.331349690765
35:24.134,0,-0.03,-0.01,-0.04,-0.02,-0.06,-0.05,-0.03,159.039455353817,147.108136199222,165.477850180541
35:24.145,0.01,0,-0.01,0.03,0,0.26,0.2,0.01,158.80503979943,147.183075776217,165.624350670321
35:24.156,0,0.02,0,-0.01,-0.01,-0.15,-0.17,-0.02,158.828998183574,147.177021416832,165.597110287375
35:24.165,-0.01,0,0.04,-0.02,-0.02,0.01,0.05,0.02,158.852956567719,147.170967057447,165.56986990443
35:24.175,-0.01,0,0.04,-0.02,-0.02,0.01,0.05,0.02,158.876914951863,147.164912698062,165.542629521485
35:24.185,-0.01,-0.01,0,0.02,0,-0.14,0.01,0,158.900873336007,147.158858338678,165.51538913854
35:24.193,-0.01,-0.01,0,0.02,0,-0.14,0.01,0,158.924831720151,147.152803979293,165.488148755594
35:24.204,0.01,0.03,-0.03,0.01,-0.02,-0.14,-0.03,0,158.948790104294,147.146749619908,165.46090837265
35:24.242,0.02,0,0,0,0.07,0.38,0.11,0.02,158.650919813306,147.211058949434,165.521494811072
35:24.251,0,0.02,0.05,-0.02,-0.03,-0.07,0.11,0,158.353049522324,147.27536827896,165.582081249491
35:24.263,-0.01,0.02,-0.04,0.03,0.01,0.12,-0.05,0,158.055179231327,147.339677608487,165.642667687915
35:24.272,-0.01,-0.06,-0.01,-0.01,0.02,0.04,-0.05,-0.01,157.757308940345,147.403986938011,165.703254126338
35:24.282,-0.01,-0.03,-0.04,-0.02,-0.04,-0.12,-0.13,-0.04,157.805869502526,147.349218585335,165.68251105521
35:24.291,-0.01,-0.03,-0.04,-0.02,-0.04,-0.12,-0.13,-0.04,157.854430064706,147.294450232658,165.661767984083
35:24.301,-0.01,-0.03,-0.04,-0.02,-0.04,-0.12,-0.13,-0.04,157.902990626886,147.239681879981,165.641024912955
35:24.316,0,0,0.06,-0.01,0,-0.08,-0.15,0,157.951551189066,147.184913527306,165.620281841829
35:24.369,0,0.01,-0.02,0.06,0.04,0.15,0.03,0,158.000111751246,147.130145174629,171.634838343872
35:24.381,0,0.01,-0.02,0.06,0.04,0.15,0.03,0,157.897444601784,147.044971973156,165.441337010525
35:24.390,0,0.02,-0.01,0,0,-0.01,0.13,0.04,157.794777452324,146.959798771679,165.283135250345
35:24.400,0,0.02,-0.01,0,0,-0.01,0.13,0.04,157.692110302858,146.874625570203,165.124933490166
35:24.410,0,0.02,0.02,0,0,-0.14,-0.04,-0.01,157.589443153394,146.78945236873,164.966731729986
35:24.419,0,0.02,0.02,0,0,-0.14,-0.04,-0.01,157.486776003929,146.704279167252,164.808529969807
35:24.457,0,0,-0.08,-0.06,-0.04,0.05,0.08,0,157.772296133557,146.8586597602,164.933686923916
35:24.469,0,0,-0.05,0.01,0.01,-0.03,-0.11,0,158.057816263172,147.013040353142,165.058843878021
35:24.479,-0.02,-0.01,-0.09,-0.03,-0.04,-0.08,-0.16,-0.08,158.343336392805,147.167420946093,165.184000832134
35:24.488,-0.01,-0.02,-0.01,-0.02,-0.01,0.03,0,0,158.628856522424,147.321801539043,165.309157786241
35:24.497,-0.01,-0.02,-0.01,-0.02,-0.01,0.03,0,0,158.477897864626,147.254836142046,165.173671559747
35:24.507,0,-0.01,0,0.01,-0.03,-0.36,0,0,158.326939206821,147.187870745047,165.038185333251
35:24.516,0,-0.01,0,0.01,-0.03,-0.36,0,0,158.175980549029,147.120905348051,164.902699106757
35:24.526,0,0.01,0,-0.05,-0.03,-0.05,0.01,-0.02,158.02502189123,147.053939951053,164.767212880259
35:24.565,0.03,0.02,0.1,0.03,0.04,0.16,0.08,0,157.92813713123,147.091021504828,164.71646262432
35:24.574,-0.01,0,0.01,0.01,-0.02,-0.46,-0.11,0,157.83125237123,147.128103058602,164.665712368382
35:24.586,0.01,0,-0.01,0,0,0,0.02,0,157.73436761123,147.165184612379,164.614962112443
35:24.595,0,0,0,0,0,0.28,-0.04,-0.04,157.637482851233,147.202266166155,164.564211856507
35:24.605,-0.04,-0.01,-0.13,-0.06,-0.05,0.07,-0.26,-0.05,157.677124834059,147.186425133688,164.609346986581
35:24.614,-0.04,-0.01,-0.13,-0.06,-0.05,0.07,-0.26,-0.05,157.716766816887,147.170584101221,164.654482116657
35:24.624,-0.04,-0.01,-0.13,-0.06,-0.05,0.07,-0.26,-0.05,157.756408799714,147.154743068754,164.699617246732
35:24.636,-0.01,-0.07,-0.15,-0.02,0,0.3,0.07,0.01,157.796050782542,147.138902036288,164.744752376808
35:24.681,0,0,0.09,0,0.01,0.11,0.26,0.01,157.852303787936,147.166588435844,164.61915639003
35:24.694,0,-0.03,0.04,0.01,0.01,-0.1,0.12,0.01,157.908556793331,147.1942748354,164.493560403251
35:24.703,0,0,-0.07,-0.02,0.02,0.15,0.13,0.01,157.955089412771,147.180919892027,164.427002525572
35:24.713,0,0.01,-0.05,0.01,-0.01,-0.13,-0.03,0,158.001622032212,147.167564948655,164.360444647895
35:24.721,0,0.01,-0.05,0.01,-0.01,-0.13,-0.03,0,158.048154651653,147.154210005282,164.293886770216
35:24.731,0,0.01,0,0.02,0.01,0.01,0.18,0.01,158.094687271093,147.14085506191,164.227328892538
35:24.740,0,0.01,0,0.02,0.01,0.01,0.18,0.01,158.141219890534,147.127500118537,164.160771014858
35:24.749,0.01,0.02,0.16,0,0,-0.06,-0.07,0.01,158.240916869997,147.211284679213,164.227112130641
35:24.792,-0.01,0.01,0.01,-0.05,-0.01,0.05,-0.1,-0.02,158.340613849461,147.29506923989,164.293453246426
35:24.802,-0.01,0.01,0.01,-0.05,-0.01,0.05,-0.1,-0.02,158.440310828926,147.378853800569,164.359794362212
35:24.812,-0.01,-0.04,-0.09,-0.02,-0.02,-0.01,-0.12,0,157.964587830218,147.348886595868,164.352484925181
35:24.822,0,-0.01,0.05,-0.02,-0.04,-0.26,0.04,-0.02,157.48886483151,147.318919391166,164.345175488151
35:24.833,0,-0.02,0.01,0,-0.02,-0.09,-0.07,0,157.013141832787,147.288952186464,164.33786605112
35:24.842,0,-0.02,0.01,0,-0.02,-0.09,-0.07,0,156.537418834057,147.258984981763,164.33055661409
35:24.852,-0.01,-0.01,0.03,0.02,0.03,0.05,-0.26,-0.01,156.868057866195,147.250958370293,164.281102195988
35:24.893,0,-0.02,0.03,0.01,0,-0.12,0.1,-0.02,157.198696898333,147.242931758823,164.231647777887
35:24.903,0,-0.02,0.03,0.01,0,-0.12,0.1,-0.02,157.062934102736,147.07478591703,164.16931918158
35:24.911,-0.02,0,-0.02,-0.02,-0.01,0.17,0.05,-0.03,156.927171307143,146.906640075238,164.106990585276
35:24.922,-0.02,0,-0.02,-0.02,-0.01,0.17,0.05,-0.03,156.791408511548,146.738494233448,164.044661988971
35:24.936,-0.02,-0.02,-0.1,-0.01,0,-0.17,0.14,0,156.65564571595,146.570348391655,163.982333392663
35:24.947,0,-0.08,-0.01,0.01,-0.01,0.03,-0.02,-0.03,156.844316794013,146.777787706562,164.268747647737
35:24.961,0.02,-0.02,0.01,0.01,0.01,0.08,0.08,0.04,157.032987872073,146.985227021467,164.555161902805
35:25.007,0.01,0.01,0.02,0.01,0,0.02,0.15,0.02,156.870897568468,146.98278984233,164.507063127369
35:25.018,0.01,0.22,-0.15,0.01,0.03,0.35,0.21,0.02,156.708807264862,146.980352663194,164.458964351936
35:25.028,0,-0.01,0.02,-0.02,-0.03,-0.07,-0.01,0.02,156.546716961253,146.977915484057,164.410865576499
35:25.039,0,-0.01,0.02,-0.02,-0.03,-0.07,-0.01,0.02,156.384626657651,146.975478304921,164.362766801063
35:25.048,0.01,-0.11,-0.06,0.01,0.02,-0.07,0.04,0.01,156.222536354049,146.973041125785,164.314668025628
35:25.058,0.01,-0.11,-0.06,0.01,0.02,-0.07,0.04,0.01,156.276742831765,146.988789691434,164.360260029739
35:25.068,0,-0.02,0,0.01,0,-0.25,0.27,0.03,156.330949309482,147.004538257083,164.40585203385
35:25.078,-0.01,-0.11,-0.08,-0.03,-0.03,-0.07,-0.06,-0.01,156.3851557872,147.020286822732,164.451444037963
35:25.119,0,0.08,0.03,0,0.02,0.02,0.1,0,156.458490831563,146.86580146904,164.216613288041
35:25.132,-0.02,-0.06,-0.12,-0.03,0,0.27,-0.02,-0.04,156.531825875927,146.711316115341,163.981782538111
35:25.141,-0.02,-0.06,-0.12,-0.03,0,0.27,-0.02,-0.04,156.60516092029,146.556830761648,163.74695178818
35:25.152,-0.02,0.04,-0.02,-0.02,0,-0.07,-0.26,-0.1,156.659729791942,146.794801617107,163.973476377225
35:25.164,-0.02,0.04,-0.02,-0.02,0,-0.07,-0.26,-0.1,156.714298663594,147.032772472568,164.200000966281
35:25.175,0.02,0.21,-0.05,-0.02,-0.07,-0.14,-0.14,0.05,156.768867535246,147.270743328025,164.426525555322
35:25.186,-0.02,-0.04,-0.17,0,-0.07,-0.26,0,0,156.823436406898,147.508714183476,164.653050144367
35:25.232,0,-0.02,0.14,0.02,0.01,0.08,0.01,0,156.67195457287,147.161495873139,164.421542569473
35:25.240,0,-0.02,0.14,0.02,0.01,0.08,0.01,0,156.520472738846,146.814277562806,164.190034994583
35:25.255,-0.03,0,0.04,0,0.02,0.35,0.21,-0.04,156.561687827507,147.140029402627,164.251976329147
35:25.269,-0.03,-0.11,0.01,-0.02,-0.01,-0.22,-0.12,-0.07,156.602902916166,147.465781242445,164.31391766371
35:25.282,-0.03,-0.11,0.01,-0.02,-0.01,-0.22,-0.12,-0.07,156.644118004826,147.791533082256,164.375858998272
35:25.296,0.01,0.08,0.02,-0.03,-0.07,0.1,-0.09,0,156.237680400602,147.410750394896,164.199572161988
35:25.344,0,-0.03,-0.05,0.02,0,-0.17,-0.18,-0.03,155.831242796376,147.029967707533,164.023285325704
35:25.355,-0.02,-0.15,0.12,-0.01,-0.03,-0.17,-0.04,0.02,155.851070748706,147.084584024055,164.025608480999
35:25.365,-0.02,-0.15,0.12,-0.01,-0.03,-0.17,-0.04,0.02,155.870898701038,147.139200340577,164.027931636294
35:25.377,-0.03,0.04,-0.12,-0.04,-0.03,-0.22,-0.18,0.05,155.890726653369,147.193816657099,164.030254791589
35:25.388,0.03,0.31,0.13,-0.06,-0.07,-0.12,-0.06,-0.05,155.910554605699,147.248432973621,164.032577946885
35:25.401,-0.01,-0.16,-0.03,0.02,0,0.1,0.28,0.07,155.93038255803,147.303049290144,164.03490110218
35:25.444,0.01,0.02,0.08,0.06,0.06,-0.13,0.28,0.03,155.75681404122,147.141005448478,164.058116117863
35:25.458,-0.01,0,-0.02,0,-0.01,0.01,-0.03,-0.04,155.583245524413,146.978961606809,164.081331133547
35:25.468,0,0.01,0.18,0.06,0.06,0.08,0,-0.09,155.409677007607,146.816917765143,164.10454614923
35:25.481,0,0.01,0.18,0.06,0.06,0.08,0,-0.09,155.416269508989,146.820560311165,164.109869327987
35:25.491,-0.01,-0.06,-0.15,0.01,0.04,0.19,-0.16,0,155.422862010372,146.824202857186,164.115192506744
35:25.501,-0.01,-0.06,-0.15,0.01,0.04,0.19,-0.16,0,155.429454511754,146.827845403207,164.120515685501
35:25.513,-0.02,-0.05,-0.06,-0.05,-0.07,-0.16,0.04,-0.11,155.436047013136,146.831487949229,164.125838864258
35:25.556,0.03,-0.12,-0.08,0.01,0.01,-0.22,0.17,0.04,155.310038409359,146.745158899065,164.037135607095
35:25.573,-0.01,-0.07,0.03,0,-0.01,0.03,0.1,-0.02,155.184029805583,146.658829848903,163.948432349932
35:25.583,-0.01,-0.07,0.03,0,-0.01,0.03,0.1,-0.02,154.990730168018,146.742147235698,163.842577141851
35:25.595,-0.02,-0.01,0.08,-0.01,-0.03,0.03,0.03,0.02,154.797430530456,146.825464622492,163.736721933768
35:25.612,0,-0.07,0.1,-0.01,-0.03,0.24,0,0,154.604130892891,146.908782009286,163.630866725687
35:25.663,-0.01,-0.17,-0.08,0,0,0.08,0.11,-0.04,154.725556229889,146.803850491362,163.629298865998
35:25.674,0,0.05,-0.16,0.03,0.08,0.46,-0.19,0.02,154.846981566885,146.698918973439,163.627731006308
35:25.685,-0.09,0.02,-0.19,0,0.01,0.3,0.13,-0.01,154.968406903885,146.593987455514,163.626163146619
35:25.696,0.24,0.32,0.15,-0.01,0.04,0.19,0.11,0,155.122220656373,146.618637145979,163.673100356742
35:25.705,0.24,0.32,0.15,-0.01,0.04,0.19,0.11,0,155.276034408853,146.643286836445,163.720037566865
35:25.717,-0.08,-0.16,-0.01,0,-0.03,-0.19,-0.24,0.03,155.429848161344,146.667936526909,163.766974776991
35:25.727,-0.03,0.15,0.02,0,0.01,0.07,-0.34,-0.02,155.583661913828,146.692586217373,163.813911987113
35:25.792,-0.02,-0.05,-0.04,0,0,-0.19,-0.13,0.02,155.737475666317,146.717235907837,170.581660883647
35:25.807,-0.02,-0.05,-0.04,0,0,-0.19,-0.13,0.02,155.383463641683,146.65488632791,163.493758068769
35:25.823,-0.02,-0.06,-0.1,-0.04,-0.05,-0.4,0.23,-0.01,155.029451617047,146.592536747984,163.126666940298
35:25.837,-0.04,-0.05,0.07,-0.01,-0.04,0.06,0.11,0.01,154.675439592422,146.530187168056,162.759575811833
35:25.897,-0.02,-0.11,0.24,-0.06,-0.05,-0.12,-0.06,-0.02,154.321427567789,146.467837588126,168.610272893819
35:25.908,-0.02,-0.11,0.24,-0.06,-0.05,-0.12,-0.06,-0.02,154.25859009537,146.525059478848,162.438658863131
35:25.922,0,-0.08,-0.07,0,-0.02,-0.17,-0.33,0.06,154.195752622952,146.58228136957,162.484833042899
35:25.938,0,-0.03,-0.01,0.02,0.05,0.24,0,0.02,154.132915150533,146.639503260292,162.531007222668
35:25.987,-0.02,0.23,0.01,-0.02,0,0.11,0.27,0,154.435163521572,146.480181409551,162.544198269924
35:25.999,0.01,0.07,-0.02,0.02,0.03,0.1,0.17,-0.01,154.737411892609,146.320859558809,162.557389317181
35:26.009,0,0.15,0.17,0,-0.01,0.1,0.17,0.03,154.725488455824,146.360550496205,162.597949858232
35:26.018,0,0.15,0.17,0,-0.01,0.1,0.17,0.03,154.713565019039,146.400241433601,162.638510399282
35:26.029,0,-0.08,-0.03,0,0.01,0.09,0,0.01,154.701641582255,146.439932370996,162.67907094033
35:26.040,-0.01,0,-0.24,0,0,0.02,0.09,-0.19,154.689718145469,146.479623308392,162.71963148138
35:26.049,0,-0.02,0.08,0,-0.06,0.03,0,-0.03,154.677794708685,146.519314245787,162.760192022431
35:26.061,0.01,-0.02,-0.03,0.03,0.02,-0.16,-0.07,0.08,154.6658712719,146.559005183181,162.800752563479
35:26.103,0.01,-0.03,-0.2,-0.02,0.01,0.07,-0.19,-0.1,154.568767825616,146.63799503274,163.115828262686
35:26.117,0,-0.09,-0.01,0.02,-0.01,-0.19,0.11,0.02,154.471664379333,146.716984882298,163.430903961897
35:26.126,-0.02,-0.08,0.03,-0.02,0.01,0.05,-0.16,-0.04,154.811862878301,146.62923528657,163.162874932867
35:26.136,-0.07,-0.11,-0.22,-0.11,-0.22,-0.26,-0.28,-0.07,155.152061377266,146.541485690842,162.894845903829
35:26.147,-0.07,-0.11,-0.22,-0.11,-0.22,-0.26,-0.28,-0.07,155.492259876242,146.453736095113,162.626816874799
35:26.158,-0.01,-0.08,0.04,-0.02,0,-0.09,-0.05,-0.09,155.832458375211,146.365986499383,162.358787845766
35:26.201,0,-0.07,-0.09,0.01,-0.01,-0.17,0.23,0,155.992266164361,146.367633248115,162.535767137726
35:26.214,0.03,0.19,0.28,0,0,0.08,0.12,0.03,156.152073953512,146.369279996846,162.712746429686
35:26.226,0.03,0.19,0.28,0,0,0.08,0.12,0.03,156.311881742658,146.370926745577,162.889725721645
35:26.236,-0.03,0,0,0.02,0.02,0.06,0.08,0.06,156.189654107415,146.201853136599,162.940847806492
35:26.249,0,0,0.06,0,0.02,0.01,0.11,-0.03,156.067426472173,146.032779527624,162.991969891337
35:26.266,0,0,0.06,0,0.02,0.01,0.11,-0.03,155.945198836933,145.86370591865,163.043091976183
35:26.315,0.01,0.01,0,0.02,0.05,0.23,0,-0.02,155.834622761181,145.996431459736,163.080519329032
35:26.330,0.02,0,-0.13,0,0.03,0.03,0.35,0.01,155.724046685427,146.129157000823,163.117946681881
35:26.340,0.02,0,-0.13,0,0.03,0.03,0.35,0.01,155.709295772986,146.232775303619,163.102193554893
35:26.350,0.02,0,-0.13,0,0.03,0.03,0.35,0.01,155.694544860544,146.336393606414,163.086440427904
35:26.359,-0.02,0,-0.12,-0.01,0,0,0.24,0.03,155.679793948102,146.44001190921,163.070687300915
35:26.368,-0.01,-0.02,0.03,0.01,0.02,-0.05,0.08,0,155.66504303566,146.543630212007,163.054934173927
35:26.377,0,-0.12,0.02,0,-0.07,-0.37,-0.26,-0.05,155.650292123219,146.647248514805,163.039181046938
35:26.427,0.02,0.01,0.02,0.01,0.04,0.14,0.62,0.07,155.829536922838,146.577793013351,162.98304978749
35:26.439,-0.02,-0.1,-0.11,-0.04,0.08,0.41,-0.03,-0.04,156.008781722459,146.508337511896,162.926918528041
35:26.450,0,0.12,0.25,-0.03,-0.04,-0.11,-0.1,0,156.188026522075,146.438882010443,162.870787268593
35:26.459,0,0.12,0.25,-0.03,-0.04,-0.11,-0.1,0,156.230021604824,146.403451086563,162.952063081901
35:26.469,0,0.12,0.25,-0.03,-0.04,-0.11,-0.1,0,156.272016687573,146.368020162684,163.033338895208
35:26.480,0.02,-0.02,-0.07,0.01,0.04,0.2,-0.07,0.07,156.314011770323,146.332589238804,163.114614708516
35:26.489,-0.06,-0.05,0.07,-0.09,-0.14,-0.18,-0.18,-0.09,156.356006853072,146.297158314924,163.195890521823
35:26.547,-0.06,-0.03,0.07,-0.04,-0.07,-0.07,-0.32,0,156.318266020961,146.335960090126,163.269615054401
35:26.556,0.02,-0.08,-0.05,-0.02,-0.01,0,-0.11,-0.04,156.28052518885,146.374761865329,163.343339586976
35:26.571,-0.02,-0.36,-0.08,0.03,0,-0.23,0.03,-0.01,156.242784356739,146.413563640532,163.417064119556
35:26.584,-0.02,-0.36,-0.08,0.03,0,-0.23,0.03,-0.01,156.205043524628,146.452365415734,163.490788652135
35:26.595,0,-0.03,-0.03,-0.01,-0.02,-0.09,0.03,0,156.167302692518,146.491167190935,170.013917612777
35:26.659,0,-0.03,0,0,0.04,-0.11,-0.12,0.02,156.249825101864,146.447525404953,163.45450784397
35:26.676,0,0.08,0.03,0.01,-0.02,0.08,0,0.01,156.332347511212,146.40388361897,163.344502503223
35:26.689,-0.01,0.07,0,-0.01,-0.01,-0.25,0.13,0.05,156.414869920558,146.360241832988,163.234497162481
35:26.704,-0.01,0.07,0,-0.01,-0.01,-0.25,0.13,0.05,157.051787529454,146.280057718924,163.092564572811
35:26.755,-0.02,-0.02,0.03,-0.03,-0.06,-0.31,-0.25,-0.05,157.688705138353,146.19987360486,162.95063198314
35:26.766,-0.04,-0.06,-0.07,-0.03,0,0.05,0.02,-0.03,158.32562274723,146.119689490797,162.808699393472
35:26.776,0.03,0.01,0.02,0,0,-0.02,-0.11,0.04,157.873909066722,146.128031246201,162.799587945975
35:26.787,0.01,0.07,0.15,0,0.02,0.1,0.06,0,157.422195386214,146.136373001605,162.790476498477
35:26.801,-0.02,-0.02,-0.09,-0.03,-0.01,0.19,-0.37,0,156.970481705706,146.144714757009,162.781365050979
35:26.815,0.01,-0.06,0.06,0.02,0.02,-0.26,-0.09,-0.02,156.518768025198,146.153056512413,162.772253603481
35:26.860,-0.02,-0.05,0,0.03,0.02,0.3,0.01,0.04,157.085880990649,146.302593615804,162.823294974712
35:26.872,-0.03,-0.03,0,-0.03,0,0.03,-0.12,-0.09,157.652993956108,146.452130719198,162.874336345943
35:26.881,-0.03,-0.03,0,-0.03,0,0.03,-0.12,-0.09,158.220106921552,146.601667822586,162.925377717173
35:26.891,-0.02,-0.04,0,0,-0.13,-0.6,-0.11,-0.01,157.805559406435,146.49460736867,162.954904291184
35:26.901,0.02,0.13,-0.04,0.01,-0.04,-0.25,0.1,0.06,157.391011891334,146.387546914756,162.984430865195
35:26.911,0,-0.02,-0.18,0,0.06,0.14,-0.19,-0.08,156.976464376217,146.280486460838,163.013957439207
35:26.922,0,-0.11,-0.07,0,-0.03,0.03,0.09,-0.01,156.561916861108,146.173426006924,163.043484013218
35:26.966,-0.01,-0.03,0.19,-0.03,0.01,0.28,0.18,-0.04,156.072622726082,146.300462183389,163.089057922726
35:26.975,-0.07,-0.09,0,-0.08,-0.18,-0.17,-0.09,0.02,155.583328591034,146.427498359855,163.134631832236
35:26.985,-0.07,-0.09,0,-0.08,-0.18,-0.17,-0.09,0.02,155.094034456022,146.554534536317,163.180205741744
35:26.997,0.02,0.06,0.03,0,0,-0.13,0.03,-0.02,154.604740320996,146.681570712782,163.225779651252
35:27.006,0.02,0.06,0.03,0,0,-0.13,0.03,-0.02,154.76583008699,146.615727792554,163.231326312261
35:27.017,-0.01,0,-0.03,-0.03,0.03,-0.03,0.21,0.01,154.926919852984,146.549884872325,163.23687297327
35:27.029,0,-0.01,-0.04,0,0.01,0.09,-0.11,-0.01,155.088009618976,146.484041952096,163.242419634279
35:27.074,0,-0.04,0.1,0.03,0.05,-0.06,0.15,-0.07,155.287003631602,146.475679059734,163.250959338497
35:27.086,0.01,0.19,0.08,-0.01,0.02,0.04,0.01,-0.01,155.485997644228,146.467316167372,163.259499042715
35:27.098,-0.05,-0.05,-0.15,0,0.03,0.14,-0.48,0,155.684991656857,146.458953275011,163.268038746934
35:27.125,-0.04,-0.01,0.15,0,-0.01,-0.03,0.06,0,155.645929623657,146.393889324672,163.182705948071
35:27.142,-0.01,-0.01,0,0.01,-0.02,-0.03,-0.15,0,155.606867590458,146.328825374333,163.097373149209
35:27.200,-0.02,0.06,0.02,-0.03,-0.07,0,0.06,0,155.567805557258,146.263761423994,169.255700041584
35:27.210,-0.02,0.06,0.02,-0.03,-0.07,0,0.06,0,155.685379576029,146.425617388965,163.06829789436
35:27.220,0.03,0.03,0.03,0,0.01,0.17,0.12,0.01,155.802953594797,146.587473353937,163.124555438373
35:27.232,0.03,-0.1,-0.03,0.01,0.05,0.26,0.16,0.04,155.920527613567,146.749329318909,163.180812982385
35:27.245,-0.02,-0.14,0,0.01,0.03,0.35,-0.2,-0.02,156.038101632339,146.911185283886,163.237070526399
35:27.289,0.01,0.05,0.06,0.01,0.03,0,0.17,0.04,156.050224054085,146.724937748704,163.20472135062
35:27.299,0.01,0.05,0.06,0.01,0.03,0,0.17,0.04,156.062346475831,146.53869021352,163.172372174841
35:27.312,0.04,-0.05,-0.16,-0.02,-0.02,-0.45,-0.2,-0.06,156.074468897576,146.352442678341,163.140022999063
35:27.322,0.04,-0.05,-0.16,-0.02,-0.02,-0.45,-0.2,-0.06,156.124226310416,146.290402078917,163.119987170736
35:27.333,0.04,-0.05,-0.16,-0.02,-0.02,-0.45,-0.2,-0.06,156.173983723256,146.228361479493,163.099951342409
35:27.344,0.01,0.35,0.08,0,-0.03,-0.04,0.22,0.12,156.223741136096,146.166320880069,163.079915514081
35:27.359,0.01,-0.03,0.12,0,-0.06,-0.5,-0.13,-0.02,156.273498548935,146.104280280645,163.059879685753
35:27.401,-0.02,-0.05,-0.12,-0.04,0.02,0.17,0.09,0,156.482966235459,146.026789347653,163.04528528205
35:27.414,0.02,-0.03,0.04,-0.02,0,0.49,0.01,0.05,156.69243392198,145.949298414659,163.030690878347
35:27.425,0,0.03,0.06,-0.02,0,0.31,0.17,0.05,156.571506818356,146.096808014646,163.096754786084
35:27.441,0,-0.03,0.2,0.01,0.01,-0.02,0.12,0.01,156.450579714734,146.24431761463,163.16281869382
35:27.453,-0.01,0,0.09,-0.04,0,0.1,0.1,0.11,156.32965261111,146.391827214615,163.228882601556
35:27.464,-0.01,-0.07,-0.13,0,0,-0.19,0.02,0.04,156.208725507486,146.539336814598,169.771551402221
35:27.516,0,0.03,0.02,0,-0.03,-0.21,-0.07,-0.02,155.787804101317,146.546777700226,163.434981568735
35:27.534,-0.05,0.04,-0.07,-0.06,-0.08,-0.04,-0.11,-0.09,155.36688269514,146.554218585854,163.575016628181
35:27.551,-0.05,0.04,-0.07,-0.06,-0.08,-0.04,-0.11,-0.09,154.945961288984,146.561659471481,163.715051687625
35:27.562,0,0,0,-0.03,0.01,-0.02,0.04,0.05,154.752657791469,146.702890006356,163.898601672925
35:27.573,0.02,0.12,-0.02,0,-0.04,-0.04,-0.06,0,154.559354293953,146.84412054123,164.082151658227
35:27.617,0,-0.06,-0.11,-0.01,-0.09,-0.25,0.03,0.04,154.602705833687,146.843026897809,164.053204775161
35:27.629,0,-0.06,-0.11,-0.01,-0.09,-0.25,0.03,0.04,154.64605737342,146.841933254389,164.024257892095
35:27.644,0,-0.1,0.01,0,0.02,0.19,-0.04,0,154.689408913154,146.840839610968,163.995311009029
35:27.655,-0.01,0.07,0.03,0,-0.01,-0.09,-0.28,0.01,154.732760452886,146.839745967547,163.966364125963
35:27.666,-0.03,0,0.01,0,0.01,0.25,0.17,-0.15,154.693896385993,146.916333948331,163.845320814269
35:27.677,0.01,-0.02,-0.12,0.02,0.04,0.09,-0.1,0.06,154.6550323191,146.992921929113,163.724277502577
35:27.688,0,-0.01,-0.03,0,0.02,0.12,0.06,-0.02,154.616168252206,147.069509909896,163.603234190883
35:27.735,-0.01,0.08,0.37,0,0.01,0.18,0.13,0.08,154.655550119238,147.092170190484,163.554642200066
35:27.748,-0.01,0.08,0.37,0,0.01,0.18,0.13,0.08,154.694931986271,147.114830471073,163.50605020925
35:27.761,-0.04,0.03,0.01,-0.02,0,-0.08,0.08,0,154.825851379483,146.973844846782,163.493679823183
35:27.772,0,-0.05,-0.1,0,0.05,0.05,0.11,0.04,154.956770772696,146.83285922249,163.481309437116
35:27.782,0,0.17,0.12,0,0,-0.04,-0.18,0,155.08769016591,146.691873598199,163.468939051049
35:27.790,0,-0.04,-0.11,0,0,-0.05,0.12,0,155.218609559121,146.550887973913,163.456568664983
35:27.850,0,0,-0.04,0,-0.01,0.05,0.32,0.03,155.137110758712,146.686472868751,163.583359019455
35:27.864,0,0.02,-0.12,-0.03,0,0.01,-0.02,-0.02,155.055611958303,146.822057763593,163.710149373928
35:27.876,0,0,0.09,0.01,0.01,0.05,0.13,0,154.827092362819,146.752429351066,163.512599739479
35:27.887,0,0,0.09,0.01,0.01,0.05,0.13,0,154.598572767336,146.682800938539,163.31505010503
35:27.898,-0.02,0.04,-0.05,-0.04,-0.02,-0.15,0.04,-0.05,154.370053171857,146.613172526013,163.11750047058
35:27.946,0,0,0.18,0.02,0,-0.07,-0.14,-0.03,154.661392707207,146.655052424668,163.238133103112
35:27.957,0,0.04,0.04,0,-0.01,0.17,0.02,-0.03,154.952732242557,146.696932323323,163.35876573564
35:27.967,0,0.04,0.04,0,-0.01,0.17,0.02,-0.03,155.244071777903,146.738812221978,163.47939836817
35:27.977,0,0.05,0.06,0.01,-0.01,0,0.04,0.04,155.026640321106,146.850880494286,163.715445301237
35:27.987,0,0.05,0.06,0.01,-0.01,0,0.04,0.04,154.809208864313,146.962948766592,163.951492234301
35:28.002,0.01,0.03,-0.06,0,0,-0.09,-0.19,0,154.591777407517,147.075017038901,164.187539167368
35:28.055,0.01,0.02,-0.04,0.01,0.03,-0.14,0.06,0.05,154.487040861848,146.968142368027,164.137918950686
35:28.066,0.01,0.02,-0.04,0.01,0.03,-0.14,0.06,0.05,154.382304316179,146.861267697152,164.088298734003
35:28.080,0,-0.08,0.19,0,0.02,-0.05,-0.07,-0.01,154.21773065321,146.855384394973,164.20760851323
35:28.092,0,0,-0.16,0.01,0,0.25,-0.06,0,154.053156990238,146.849501092796,164.32691829246
35:28.106,0,0,-0.16,0.01,0,0.25,-0.06,0,153.888583327272,146.843617790618,164.446228071685
35:28.117,-0.02,0,-0.01,0,0.02,0.3,0.11,-0.06,154.31101024917,146.630295476037,164.007002144681
35:28.159,-0.01,-0.03,-0.06,-0.05,0,-0.03,0.15,0.02,154.733437171071,146.416973161455,163.567776217682
35:28.169,-0.01,-0.03,-0.06,-0.05,0,-0.03,0.15,0.02,154.811121894089,146.401028597147,163.494248446896
35:28.179,-0.02,0,0,-0.03,-0.03,0.19,-0.04,-0.04,154.888806617102,146.385084032839,163.420720676109
35:28.187,-0.02,0,0,-0.03,-0.03,0.19,-0.04,-0.04,154.966491340121,146.369139468531,163.347192905321
35:28.197,-0.02,0,-0.03,-0.02,-0.01,-0.13,-0.08,0.03,155.04417606314,146.353194904222,163.273665134533
35:28.208,-0.02,0,-0.03,-0.02,-0.01,-0.13,-0.08,0.03,155.121860786159,146.337250339914,163.200137363745
35:28.220,0.01,0,-0.14,-0.02,-0.01,-0.16,0.03,-0.02,155.199545509175,146.321305775607,163.12660959296
35:28.229,0,-0.01,0.12,0.03,0,0.02,-0.09,0,155.151127653477,146.660417177604,163.462059625701
35:28.269,0,0.04,0.03,0,0,-0.16,-0.15,0.02,155.10270979778,146.999528579596,163.797509658438
35:28.278,0.02,-0.02,-0.08,0,0.03,0.21,0.03,0.08,155.04086355982,147.004426366289,163.910456560639
35:28.291,0.02,-0.02,-0.08,0,0.03,0.21,0.03,0.08,154.979017321861,147.009324152981,164.023403462845
35:28.305,0.01,-0.02,-0.17,0.02,0.03,0.12,0.19,0.08,154.917171083902,147.014221939674,164.136350365046
35:28.323,0,0,0.07,-0.04,0,-0.15,0.28,-0.03,154.855324845943,147.019119726367,164.249297267246
35:28.336,0,0.05,-0.12,-0.04,-0.03,-0.03,-0.19,-0.03,154.680350309111,146.869247315466,164.253201301621
35:28.375,0,-0.05,-0.03,0.04,0.09,0.1,-0.14,0.02,154.505375772282,146.719374904569,164.257105335995
35:28.384,-0.01,0.01,0.02,-0.04,-0.07,-0.09,-0.09,-0.03,154.330401235446,146.569502493663,164.26100937037
35:28.393,0,0,0,0,0.04,0.12,0,0.03,154.304027578158,146.589350853457,164.245961042581
35:28.401,0,0,0,0,0.04,0.12,0,0.03,154.277653920869,146.609199213252,164.230912714792
35:28.410,0,0,0,0,0.04,0.12,0,0.03,154.25128026358,146.629047573047,164.215864387004
35:28.421,0,-0.06,-0.2,0,-0.01,-0.06,0.01,-0.03,154.224906606292,146.648895932841,164.200816059215
35:28.430,0,-0.06,-0.2,0,-0.01,-0.06,0.01,-0.03,154.198532949003,146.668744292636,164.185767731426
35:28.441,0,0.04,0.09,0.02,0.03,-0.06,0.28,0.02,154.348396752675,146.597832911398,163.998451723748
35:28.479,-0.02,0.05,-0.02,0,-0.02,-0.3,-0.02,0.01,154.498260556344,146.526921530161,163.811135716074
35:28.488,-0.02,0.05,-0.02,0,-0.02,-0.3,-0.02,0.01,154.468249440038,146.615582665741,163.908914902708
35:28.497,0,-0.01,0.02,0,0,0.18,-0.13,0,154.43823832373,146.704243801323,164.006694089341
35:28.506,0,-0.01,0.02,0,0,0.18,-0.13,0,154.408227207424,146.792904936901,164.104473275976
35:28.517,-0.01,-0.03,0.07,0.05,0.04,0.09,0.08,0.03,154.378216091118,146.881566072481,164.202252462612
35:28.525,0,-0.05,-0.06,-0.03,-0.07,0.12,-0.04,0,154.348204974812,146.97022720806,164.300031649245
35:28.536,0,0,0.01,0,0.06,0.26,0.11,-0.01,154.318193858506,147.058888343639,164.397810835879
35:28.545,0,0,0.01,0,0.06,0.26,0.11,-0.01,154.2881827422,147.147549479218,164.495590022516
35:28.554,0,-0.01,-0.05,-0.02,0,0,-0.15,-0.01,154.491578209465,147.019755689528,164.228948664208
35:28.595,-0.01,0,-0.01,0.01,0,-0.16,-0.08,0.03,154.694973676736,146.891961899836,163.962307305894
35:28.611,-0.01,0,-0.01,0.01,0,-0.16,-0.08,0.03,154.957465499934,146.876773781226,164.045724437725
35:28.625,0,-0.03,0.06,0,0.01,0.13,0.02,0,155.21995732313,146.861585662615,164.129141569556
35:28.640,0.02,0.02,-0.17,-0.01,0,-0.12,-0.14,-0.04,155.48244914633,146.846397544005,164.212558701389
35:28.652,0.02,0.02,-0.17,-0.01,0,-0.12,-0.14,-0.04,155.644312256474,146.806106480839,164.063009393634
35:28.661,0.01,-0.09,-0.03,0.02,0.05,0.15,0.28,0.09,155.806175366619,146.765815417673,163.913460085878
35:28.702,-0.02,-0.01,0.03,-0.01,-0.03,-0.13,-0.22,-0.08,155.935698728767,146.723143273609,163.889718360014
35:28.711,-0.02,-0.01,0.03,-0.01,-0.03,-0.13,-0.22,-0.08,156.065222090918,146.680471129542,163.865976634151
35:28.720,0,0.01,0,0.02,0,-0.07,0.02,0,156.194745453067,146.637798985476,163.842234908287
35:28.733,0,0.01,0,0.02,0,-0.07,0.02,0,156.324268815217,146.59512684141,163.818493182423
35:28.743,-0.02,0.08,-0.02,0,-0.01,0.05,-0.11,-0.07,156.453792177363,146.552454697345,163.794751456559
35:28.753,0,-0.06,-0.09,0.02,0.02,0.23,0.13,-0.07,155.973375090172,146.710532012585,164.000903913791
35:28.761,-0.05,-0.02,0.1,-0.05,-0.07,-0.16,0,-0.01,155.492958002971,146.868609327825,164.207056371022
35:28.770,-0.05,-0.02,0.1,-0.05,-0.07,-0.16,0,-0.01,155.012540915784,147.026686643061,164.413208828246
35:28.815,-0.01,0.02,0,-0.06,-0.02,0,-0.09,0,155.093408121083,146.970544555679,164.342166511178
35:28.823,-0.01,-0.07,0.02,0,0.03,0.08,0.02,-0.04,155.174275326381,146.914402468296,164.271124194109
35:28.835,0.01,0.02,0.06,0,0,-0.15,-0.02,0.06,155.25514253168,146.858260380914,164.200081877041
35:28.844,0.01,0.02,0.06,0,0,-0.15,-0.02,0.06,155.33600973698,146.80211829353,164.129039559972
35:28.854,0.01,0.02,0.06,0,0,-0.15,-0.02,0.06,155.10991862799,146.829312013043,164.122471180274
35:28.865,0.02,0.01,0.02,-0.02,-0.01,0.11,-0.07,0.02,154.883827518999,146.856505732556,164.115902800577
35:28.873,0,-0.02,0.01,0,-0.02,0.17,0.02,-0.11,154.657736410009,146.883699452069,164.10933442088
35:28.883,0,-0.04,0,-0.02,0.01,0.05,0.14,-0.04,154.431645301021,146.910893171582,164.102766041183
35:28.922,0,0.02,0,0,-0.03,-0.25,0.08,0,154.714178185732,146.873689818783,164.158723621917
35:28.931,0,-0.02,-0.05,-0.01,0.02,0.08,0.01,0.02,154.996711070446,146.836486465984,164.214681202651
35:28.943,-0.01,-0.06,0.04,0.06,0.01,0.21,0.05,0,155.279243955149,146.799283113185,164.270638783385
35:28.952,-0.01,-0.06,0.04,0.06,0.01,0.21,0.05,0,155.561776839859,146.762079760385,164.326596364122
35:28.961,0.01,-0.03,0.07,0.07,0.11,0.17,0.04,0,155.623483680042,146.789768066476,164.346939531105
35:28.972,0.01,-0.03,0.07,0.07,0.11,0.17,0.04,0,155.685190520226,146.817456372567,164.367282698088
35:28.981,0,0.01,-0.03,-0.02,-0.04,-0.03,0.11,0,155.74689736041,146.845144678658,164.387625865072
35:28.990,-0.01,0.03,0.05,-0.03,-0.08,-0.22,0,-0.01,155.808604200593,146.872832984748,164.407969032055
35:29.048,0.02,0.03,0.09,0.02,0.03,0.28,0.14,0.05,155.870311040776,146.900521290839,170.047676910784
35:29.061,-0.02,-0.02,0.01,-0.05,-0.09,-0.34,-0.03,0.02,155.854381921812,146.889980710919,164.411800367157
35:29.072,-0.02,-0.02,0.01,-0.05,-0.09,-0.34,-0.03,0.02,155.838452802847,146.879440130999,164.395288535276
35:29.083,0.01,0.01,-0.03,0.01,0.04,-0.13,-0.04,-0.01,155.822523683883,146.868899551079,164.378776703395
35:29.094,0.01,0.01,-0.03,0.01,0.04,-0.13,-0.04,-0.01,155.80659456492,146.858358971159,164.362264871515
35:29.105,0,0,-0.06,0.03,0.05,0.24,-0.02,-0.01,155.790665445956,146.847818391239,164.345753039634
35:29.146,0.01,-0.02,0.04,-0.04,-0.01,0.17,0.09,0.06,155.668988255318,146.611486404367,164.119428447273
35:29.161,-0.02,-0.02,-0.07,-0.03,-0.05,-0.44,-0.02,-0.04,155.547311064678,146.375154417496,163.893103854913
35:29.172,-0.02,-0.02,-0.07,-0.03,-0.05,-0.44,-0.02,-0.04,155.425633874038,146.138822430627,163.666779262556
35:29.182,0,-0.04,0.05,0,0,0.22,0,0.03,155.276510967631,146.251052159774,163.621404216307
35:29.195,0,0.05,-0.04,-0.02,-0.01,0.06,0,-0.01,155.127388061217,146.363281888921,163.576029170057
35:29.207,0,0.05,-0.04,-0.02,-0.01,0.06,0,-0.01,154.978265154808,146.475511618067,163.530654123809
35:29.247,-0.02,-0.02,-0.03,-0.04,-0.02,0,-0.01,-0.08,154.968026069515,146.449844600057,163.58539292144
35:29.255,0.01,-0.1,0.02,0,0.02,0.38,0.07,-0.02,154.95778698422,146.424177582046,163.640131719072
35:29.265,0.01,-0.1,0.02,0,0.02,0.38,0.07,-0.02,154.947547898927,146.398510564037,163.694870516703
35:29.272,0.01,-0.1,0.02,0,0.02,0.38,0.07,-0.02,154.968684685532,146.471132784168,163.773961886656
35:29.282,0.01,0.02,-0.03,0.06,0.01,0.06,0,0.03,154.989821472135,146.543755004298,163.853053256604
35:29.289,0.01,0.02,-0.03,0.06,0.01,0.06,0,0.03,155.010958258741,146.616377224431,163.932144626557
35:29.298,0.01,0.02,-0.03,0.06,0.01,0.06,0,0.03,155.032095045346,146.688999444562,164.01123599651
35:29.309,-0.02,-0.01,-0.01,-0.01,-0.01,0.08,0.03,-0.01,155.053231831951,146.761621664692,164.090327366463
35:29.320,-0.02,-0.03,-0.05,-0.02,-0.03,-0.09,-0.16,-0.05,155.074368618557,146.834243884825,164.169418736416
35:29.360,-0.02,-0.01,-0.07,-0.02,0,0.15,0,0,155.454351641256,146.726341803267,164.174960903571
35:29.369,-0.02,-0.01,-0.07,-0.02,0,0.15,0,0,155.834334663956,146.618439721711,164.180503070727
35:29.378,-0.01,0,0.07,-0.03,-0.05,-0.23,-0.03,0,155.795440495479,146.573226111281,164.187157656217
35:29.387,-0.01,0,0.07,-0.03,-0.05,-0.23,-0.03,0,155.756546327004,146.528012500853,164.193812241707
35:29.395,0,-0.01,0,0,-0.01,0.13,0.02,0.01,155.71765215853,146.482798890424,164.200466827196
35:29.404,0.01,0,-0.06,-0.02,0.03,0.2,0.08,0,155.678757990054,146.437585279994,164.207121412686
35:29.414,0.01,0,-0.06,-0.02,0.03,0.2,0.08,0,155.639863821577,146.392371669564,164.213775998176
35:29.424,0,-0.01,0.01,0,-0.01,-0.17,-0.15,0.01,155.600969653101,146.347158059134,164.220430583666
35:29.463,0,-0.01,0,-0.01,0,0.08,0.07,-0.01,155.583567257734,146.367522983631,164.213309425163
35:29.471,0,-0.01,0,-0.01,0,0.08,0.07,-0.01,155.566164862368,146.387887908129,164.20618826666
35:29.480,-0.01,-0.03,-0.06,-0.03,-0.04,-0.1,-0.06,-0.04,155.548762467001,146.408252832626,164.199067108157
35:29.488,-0.01,-0.03,-0.06,-0.03,-0.04,-0.1,-0.06,-0.04,155.715703975608,146.434498989704,164.215508306567
35:29.497,0,0,0.03,0.03,0.01,0.16,0.03,0,155.882645484224,146.460745146782,164.231949504977
35:29.510,0,0,0.03,0.03,0.01,0.16,0.03,0,156.049586992831,146.486991303861,164.248390703388
35:29.526,0.01,0.02,-0.04,-0.01,0.01,-0.25,0.03,-0.02,156.216528501434,146.513237460938,164.264831901798
35:29.576,0,0.01,0.01,0,0,0.21,0.17,0,156.252151202031,146.605747542211,164.24613778929
35:29.585,0,0.01,0.01,0,0,0.21,0.17,0,156.287773902627,146.698257623483,164.227443676782
35:29.595,0,0.01,0.01,0,0,0.21,0.17,0,156.333756454364,146.684261533132,164.210621900721
35:29.606,0,-0.01,0,-0.02,-0.01,0.13,0,-0.01,156.379739006101,146.670265442781,164.19380012466
35:29.615,0,0,-0.04,0,0,-0.01,0.1,0.03,156.425721557839,146.656269352429,164.1769783486
35:29.625,0,0,-0.04,0,0,-0.01,0.1,0.03,156.471704109576,146.642273262079,164.16015657254
35:29.633,0,0,-0.04,0,0,-0.01,0.1,0.03,156.517686661313,146.628277171728,164.14333479648
35:29.642,0,0.04,-0.04,-0.01,-0.02,-0.07,-0.04,0,156.001004808331,146.483795968212,164.07050706069
35:29.681,0,-0.01,-0.05,-0.01,-0.01,-0.11,-0.02,0,155.484322955348,146.339314764694,163.997679324898
35:29.692,0,-0.01,-0.05,-0.01,-0.01,-0.11,-0.02,0,155.502793142494,146.46215434064,164.107442409095
35:29.700,-0.01,0.02,0.16,0.03,-0.03,-0.23,-0.07,-0.02,155.52126332964,146.584993916594,164.217205493293
35:29.710,-0.01,0.02,0.16,0.03,-0.03,-0.23,-0.07,-0.02,155.539733516785,146.70783349254,164.32696857749
35:29.721,0,-0.05,-0.06,0,0,0.05,0.02,-0.01,155.558203703931,146.830673068487,164.436731661688
35:29.730,0,-0.05,-0.06,0,0,0.05,0.02,-0.01,155.576673891077,146.953512644433,164.546494745884
35:29.741,0,0.04,0,0,-0.01,-0.17,-0.01,0.03,155.595144078223,147.076352220381,164.656257830082
35:29.751,0,0.04,0,0,-0.01,-0.17,-0.01,0.03,155.977875212673,146.980614317361,164.615620440653
35:29.795,-0.01,0,0.06,0.01,0,0.11,-0.38,-0.01,156.360606347131,146.884876414339,164.574983051224
35:29.803,0,0,-0.05,-0.02,0.02,0.02,-0.02,-0.05,156.743337481581,146.78913851132,164.534345661796
35:29.813,0,0,-0.05,-0.02,0.02,0.02,-0.02,-0.05,156.460184145915,146.732595656522,164.578098176274
35:29.822,-0.02,-0.01,0,-0.03,0,0.05,-0.01,-0.01,156.177030810257,146.676052801725,164.62185069075
35:29.831,-0.02,-0.01,0,-0.03,0,0.05,-0.01,-0.01,155.893877474584,146.619509946928,164.665603205228
35:29.841,0,-0.02,0,0.04,0.01,-0.04,0.07,0,155.610724138918,146.562967092131,164.709355719706
35:29.849,0,-0.02,0,0.04,0.01,-0.04,0.07,0,155.32757080326,146.506424237337,164.753108234182
35:29.859,-0.01,0.01,0,0,-0.04,-0.26,-0.07,-0.01,155.591828986562,146.805808125494,165.00616207581
35:29.900,-0.01,-0.02,0.09,-0.01,0,0.02,0.03,-0.01,155.856087169861,147.105192013647,165.259215917438
35:29.913,0,0,-0.03,0.02,0,0.13,0.07,0.02,155.624990345135,146.848877834957,165.027285049942
35:29.923,0,-0.01,0.03,0,0,0.15,-0.05,0.01,155.393893520406,146.592563656257,164.795354182439
35:29.933,0,-0.01,0.03,0,0,0.15,-0.05,0.01,155.162796695673,146.336249477559,164.563423314943
35:29.943,0,0,-0.01,0.04,0,0.09,0.09,0,154.931699870951,146.079935298872,164.331492447454
35:29.952,0,0,-0.01,0.04,0,0.09,0.09,0,155.065456186836,146.41461739087,164.633428367062
35:29.962,0,0.04,0.04,-0.03,-0.03,-0.01,0,0,155.199212502725,146.749299482875,164.935364286677
35:29.971,0,0.04,0.04,-0.03,-0.03,-0.01,0,0,155.332968818606,147.083981574866,165.237300206274
35:30.014,0,0.01,-0.11,-0.03,-0.03,-0.06,-0.06,0,155.34041520838,147.085709218469,165.177111082933
35:30.029,-0.01,-0.01,0.03,-0.02,-0.03,-0.45,-0.06,-0.01,155.347861598154,147.087436862072,165.116921959591
35:30.043,0.01,0,0.05,0.02,0.02,0.08,-0.12,-0.01,155.355307987928,147.089164505675,165.05673283625
35:30.054,0.01,0,0.05,0.02,0.02,0.08,-0.12,-0.01,155.38255170905,147.111888921113,165.095232407136
35:30.065,0,0.02,-0.13,-0.03,-0.03,0.16,0.07,0.01,155.409795430171,147.134613336551,165.133731978022
35:30.074,0,0.02,-0.13,-0.03,-0.03,0.16,0.07,0.01,155.437039151293,147.157337751989,165.172231548908
35:30.081,-0.01,-0.05,-0.1,-0.01,0.01,0.13,0.01,0,155.464282872416,147.180062167428,165.210731119794
35:30.123,0,0.01,0.06,0.07,0.05,-0.07,-0.09,-0.02,155.333075777087,147.072170899222,165.228195501267
35:30.133,0,0.01,0.06,0.07,0.05,-0.07,-0.09,-0.02,155.201868681757,146.964279631015,165.24565988274
35:30.144,-0.02,0,-0.06,-0.02,-0.06,-0.28,0.03,0.02,155.070661586426,146.856388362809,165.263124264213
35:30.154,-0.02,0,-0.06,-0.02,-0.06,-0.28,0.03,0.02,155.11614839395,146.966884417772,165.35622923526
35:30.163,-0.02,-0.07,-0.11,-0.05,-0.03,-0.19,-0.02,0.03,155.161635201475,147.077380472732,165.449334206303
35:30.173,-0.02,-0.07,-0.11,-0.05,-0.03,-0.19,-0.02,0.03,155.207122009,147.187876527697,165.542439177349
35:30.183,0.01,0.02,0.05,0.01,0,0,0.15,0,155.252608816525,147.298372582662,165.635544148396
35:30.193,0,0.02,0.11,-0.01,0.04,0.24,0.08,0,155.29809562405,147.408868637626,165.728649119445
35:30.238,0,0.03,0,-0.02,-0.01,0.17,0,-0.03,155.452319617551,147.280349687834,165.707502533131
35:30.248,0,0.03,0,-0.02,-0.01,0.17,0,-0.03,155.606543611048,147.151830738042,165.686355946817
35:30.257,0,0.03,0,-0.02,-0.01,0.17,0,-0.03,155.571748605525,147.181876677881,165.638755350888
35:30.266,0,0.02,0.15,0.02,0,0.09,0.04,-0.06,155.536953600002,147.211922617719,165.59115475496
35:30.273,0,0.02,0.15,0.02,0,0.09,0.04,-0.06,155.502158594479,147.241968557558,165.54355415903
35:30.281,0,0.01,0,0.03,0.04,-0.21,-0.16,0,155.467363588956,147.272014497398,165.495953563101
35:30.292,0,0.01,0,0.03,0.04,-0.21,-0.16,0,155.432568583434,147.302060437236,165.448352967172
35:30.304,-0.01,-0.02,0,-0.02,0,-0.14,-0.01,-0.01,155.329151157755,147.366453236163,165.415116959294
35:30.344,-0.01,-0.02,-0.08,-0.01,0,0.04,0.06,0,155.225733732081,147.430846035089,165.381880951415
35:30.354,-0.01,-0.02,-0.08,-0.01,0,0.04,0.06,0,155.122316306402,147.495238834017,165.348644943536
35:30.363,0,-0.01,0.01,-0.02,0.01,0.24,0.02,0.03,155.259978787568,147.550543356236,165.424064352559
35:30.372,0,-0.01,0.01,-0.02,0.01,0.24,0.02,0.03,155.397641268733,147.605847878454,165.499483761583
35:30.383,0,0,0,-0.02,0,-0.01,-0.01,0,155.535303749897,147.661152400673,165.574903170605
35:30.396,0,0,0,-0.02,0,-0.01,-0.01,0,155.672966231061,147.716456922891,165.650322579628
35:30.409,0,-0.01,-0.07,0,-0.02,0.01,-0.05,-0.04,155.810628712221,147.77176144511,165.725741988648
35:30.451,0,0,0.07,-0.02,-0.04,-0.11,-0.05,-0.02,155.897011714019,147.501174247726,165.654799139905
35:30.462,-0.01,-0.02,-0.07,-0.01,0,-0.18,-0.04,0.02,155.983394715815,147.230587050344,165.583856291161
35:30.471,-0.01,-0.02,-0.07,-0.01,0,-0.18,-0.04,0.02,155.91948749477,147.141842382141,165.507780154168
35:30.480,0.01,-0.03,-0.01,0,0,0.11,0.03,0.04,155.855580273728,147.053097713941,165.431704017174
35:30.489,0.01,-0.03,-0.01,0,0,0.11,0.03,0.04,155.791673052683,146.964353045738,165.355627880181
35:30.499,0,0.01,0.05,0,-0.01,0.26,-0.01,-0.01,155.727765831638,146.875608377533,165.279551743188
35:30.509,0,0.01,0.05,0,-0.01,0.26,-0.01,-0.01,155.663858610589,146.786863709325,165.203475606191
35:30.519,-0.01,0,0.02,-0.04,0,-0.17,-0.03,-0.02,155.599951389542,146.698119041122,165.127399469198
35:30.557,0,-0.03,0.08,0,-0.01,-0.31,-0.1,0,155.445456127274,146.902950138328,165.112667140551
35:30.568,0,-0.03,-0.02,0,-0.03,0.12,0.05,0.02,155.290960865004,147.107781235537,165.097934811903
35:30.577,0,-0.03,-0.02,0,-0.03,0.12,0.05,0.02,154.993378239124,146.973499281841,164.961330985196
35:30.586,-0.01,0,0.05,0,-0.03,-0.03,-0.23,-0.05,154.695795613254,146.839217328141,164.824727158484
35:30.595,0,-0.01,0,0,0.03,0.09,-0.05,0,154.398212987369,146.704935374444,164.688123331776
35:30.603,0,0,0,0,0,-0.14,0.05,0,154.100630361478,146.570653420746,164.551519505065
35:30.612,0,0,0,0,0,-0.14,0.05,0,153.803047735601,146.436371467052,164.414915678357
35:30.622,0,0,0,0,0,-0.14,0.05,0,153.505465109716,146.302089513355,164.278311851644
35:30.630,0.02,-0.01,-0.07,-0.03,0.02,0.14,0.06,0.03,153.330320276602,146.480086392907,164.621664841226
35:30.672,0,0,0,0,0.01,0.05,0.07,0,153.155175443488,146.658083272456,164.965017830807
35:30.681,0,0,0,0,0.01,0.05,0.07,0,152.980030610372,146.836080152008,165.308370820385
35:30.698,-0.01,0.02,0.06,0.02,0.01,0.17,0.02,-0.04,152.962399409371,146.970015978873,165.386058464762
35:30.713,0,-0.01,0,0,-0.02,0.25,0.01,0,152.94476820837,147.103951805737,165.463746109138
35:30.724,0,0,0,0,0,-0.42,-0.09,0,152.92713700737,147.2378876326,165.541433753514
35:30.737,0,0,0,0,0,-0.42,-0.09,0,152.791644979665,147.411657414151,165.720937265107
35:30.778,-0.01,-0.01,0,-0.03,0.04,0.25,-0.01,-0.02,152.656152951957,147.585427195701,165.900440776699
35:30.789,0.01,0.01,0.01,0.02,0.09,-0.11,-0.01,0,152.520660924256,147.759196977245,166.079944288285
35:30.798,0,0,-0.02,0.01,0,-0.17,-0.06,0,152.496580095096,147.780133657285,165.958841624366
35:30.807,0,0,0,0.03,0.03,-0.12,-0.17,-0.02,152.472499265936,147.801070337325,165.837738960447
35:30.817,0,0,0,0.03,0.03,-0.12,-0.17,-0.02,152.448418436777,147.822007017364,165.716636296529
35:30.827,-0.01,0,0,-0.04,-0.1,-0.01,-0.24,0,152.424337607617,147.842943697403,165.59553363261
35:30.837,0.01,-0.04,-0.06,0.03,0.04,0.01,-0.07,0,152.400256778458,147.863880377443,165.47443096869
35:30.847,0,0.04,0.06,0,0,-0.17,0.12,0.01,152.413300760954,147.846227769715,165.42951400703
35:30.887,-0.01,0,-0.03,-0.01,0,0.27,0.09,0,152.42634474345,147.828575161989,165.38459704537
35:30.896,-0.02,0,-0.01,0,0.02,0.16,-0.06,-0.02,152.439388725946,147.810922554261,165.33968008371
35:30.906,0,0.01,0.01,-0.04,0,0.22,0,0,152.45844020179,147.688523650629,165.259776479297
35:30.913,0,0.01,0.01,-0.04,0,0.22,0,0,152.477491677634,147.566124746993,165.17987287488
35:30.923,0,0,-0.04,0.01,0,0.12,0.08,0.01,152.496543153478,147.443725843355,165.099969270468
35:30.931,0,0,-0.04,0.01,0,0.12,0.08,0.01,152.515594629322,147.321326939724,165.02006566606
35:30.941,0,0.02,0.05,0.04,0,0.09,0.11,0,152.534646105165,147.198928036092,164.940162061646
35:30.953,0,-0.02,0.01,0,0.04,0.08,0,0.01,152.553697581009,147.076529132461,164.860258457233
35:30.961,0,-0.01,-0.03,0,0.01,-0.16,0.03,0,152.572749056852,146.95413022883,164.780354852819
35:31.001,-0.01,-0.08,-0.09,-0.02,-0.03,-0.21,0,-0.03,152.720528296093,146.835690675787,164.879783360062
35:31.009,-0.01,-0.08,-0.09,-0.02,-0.03,-0.21,0,-0.03,152.868307535335,146.717251122744,164.979211867304
35:31.018,-0.01,-0.08,-0.09,-0.02,-0.03,-0.21,0,-0.03,152.769763021779,146.706617358123,165.074806250919
35:31.028,0.01,0.05,0.15,0,-0.04,-0.45,0.01,0.01,152.671218508225,146.695983593503,165.170400634532
35:31.036,0.01,0.05,0.15,0,-0.04,-0.45,0.01,0.01,152.572673994669,146.685349828883,165.26599501815
35:31.047,0,0.02,0.02,0.01,0.02,0.3,-0.01,0,152.474129481116,146.674716064264,165.361589401764
35:31.056,0,0.02,0.02,0.01,0.02,0.3,-0.01,0,152.375584967558,146.664082299643,165.45718378538
35:31.065,-0.01,-0.02,-0.02,0,-0.05,0.02,-0.06,0.01,152.314331695778,146.538451228838,165.46404004436
35:31.114,0,0,0,0,0,0.22,0,-0.02,152.253078423998,146.412820158033,165.470896303339
35:31.127,0,0,-0.01,-0.01,-0.01,-0.3,0.01,0.01,151.929706399802,146.508094188654,165.645038980714
35:31.137,0,0,-0.01,-0.01,-0.01,-0.3,0.01,0.01,151.60633437561,146.603368219273,165.81918165808
35:31.146,0,0,-0.01,-0.01,-0.01,-0.3,0.01,0.01,151.282962351412,146.698642249896,165.993324335454
35:31.155,0,0,0,-0.04,-0.01,-0.06,0.01,-0.03,150.95959032722,146.793916280517,166.167467012827
35:31.165,0.01,0,0.03,0,0.01,-0.06,-0.01,0,150.636218303029,146.889190311136,166.341609690193
35:31.174,-0.02,0,0.05,-0.05,-0.04,-0.01,0.01,0,150.521808370399,146.745166960141,166.159735926931
35:31.214,0,-0.08,-0.15,0.02,-0.01,-0.13,-0.01,0,150.407398437766,146.601143609142,165.977862163665
35:31.223,0,-0.08,-0.15,0.02,-0.01,-0.13,-0.01,0,150.29298850514,146.457120258149,165.795988400405
35:31.232,-0.01,0,0,0.01,0,0.02,-0.01,0,150.096539239305,146.486469590818,165.911671529404
35:31.241,0,-0.01,-0.06,-0.03,0,0.2,0.15,0.02,149.900089973475,146.515818923486,166.027354658399
35:31.251,-0.02,0,0.04,0,0.01,0.35,0,-0.01,149.703640707652,146.545168256155,166.143037787395
35:31.260,-0.02,0,0.04,0,0.01,0.35,0,-0.01,149.507191441815,146.574517588824,166.258720916396
35:31.271,0.02,0,0,-0.01,-0.01,-0.23,0,0,149.310742175985,146.603866921493,166.374404045395
35:31.279,-0.01,0,-0.03,-0.02,-0.03,-0.23,-0.07,-0.02,149.399254411259,146.852111679834,166.471251739988
35:31.288,-0.01,0,-0.03,-0.02,-0.03,-0.23,-0.07,-0.02,149.487766646533,147.100356438174,166.568099434583
35:31.336,0,0,0,0,0,0.05,-0.08,-0.02,149.068442489835,147.375238947927,166.682714685787
35:31.346,0,0,-0.01,-0.02,-0.01,0.02,0.04,0.01,148.649118333138,147.650121457675,166.797329936988
35:31.356,0,0,-0.01,-0.02,-0.01,0.02,0.04,0.01,148.229794176448,147.925003967423,166.911945188187
35:31.366,0,0,-0.01,-0.01,0,0.02,0.03,0,147.810470019751,148.199886477178,167.02656043939
35:31.375,0,0,-0.01,-0.01,0,0.02,0.03,0,147.216895495767,148.399814622606,167.163811288487
35:31.383,0,0,-0.01,-0.01,0,0.02,0.03,0,146.62332097179,148.599742768032,167.301062137583
35:31.394,0,0.02,0.01,-0.01,0,-0.08,-0.03,-0.03,146.029746447835,148.799670913455,167.438312986676
35:31.446,-0.01,-0.02,-0.07,-0.01,0,-0.03,0,0,145.926435861312,148.330070467871,166.810719029774
35:31.459,0,0,0,-0.04,-0.01,0.17,0.07,0.03,145.823125274789,147.860470022284,166.183125072865
35:31.470,0,0,0,-0.04,-0.01,0.17,0.07,0.03,145.256522142568,147.647346736978,165.879031405864
35:31.481,0,0,0,-0.04,-0.01,0.17,0.07,0.03,144.689919010372,147.434223451672,165.574937738864
35:31.492,0,0,0.01,0,-0.01,-0.14,-0.01,-0.01,144.123315878154,147.221100166369,165.270844071863
35:31.504,-0.02,-0.03,0.02,0.07,0.06,0.06,0.01,0.02,143.556712745922,147.007976881061,164.966750404863
35:31.544,0,0.01,0.03,-0.01,0,0.02,0,0.01,142.316920483485,147.051483027672,165.103562587532
35:31.554,0,0.01,0.03,-0.01,0,0.02,0,0.01,141.077128221048,147.094989174285,165.240374770205
35:31.564,0,0,-0.07,0.01,0.01,-0.06,-0.01,0,140.886357145206,147.06871236754,165.138003716231
35:31.573,0,0,-0.07,0.01,0.01,-0.06,-0.01,0,140.695586069356,147.042435560797,165.035632662257
35:31.582,0,-0.02,-0.03,-0.01,-0.04,0.26,-0.01,-0.02,140.50481499351,147.016158754052,164.933261608283
35:31.592,-0.02,0,0,-0.05,-0.1,-0.3,0,-0.04,140.314043917668,146.989881947307,164.830890554309
35:31.601,-0.02,0,0,-0.05,-0.1,-0.3,0,-0.04,140.123272841825,146.963605140563,164.728519500335
35:31.611,0,0.01,0.06,-0.01,0.02,0.22,0.04,0,139.917834648641,146.957684134812,164.665832530211
35:31.652,0,-0.03,-0.07,-0.03,-0.02,-0.11,-0.05,-0.01,139.712396455459,146.951763129061,164.603145560087
35:31.662,0,0.07,0.19,0.01,0,-0.02,0,0.02,139.568835319071,147.234425425086,164.776544455821
35:31.673,0,0.07,0.19,0.01,0,-0.02,0,0.02,139.425274182686,147.517087721099,164.949943351545
35:31.681,0,0.07,0.19,0.01,0,-0.02,0,0.02,139.281713046297,147.79975001713,165.123342247283
35:31.692,0,0,-0.01,0.04,0.03,0.28,0.02,0,139.138151909912,148.082412313157,165.296741143022
35:31.701,0,0.02,0.14,0,-0.02,-0.04,0.02,0,138.994590773527,148.365074609177,165.470140038757
35:31.713,0,0,0,0,-0.01,0.08,-0.03,0,138.059041553199,148.36015543003,165.077505471563
35:31.729,0,-0.02,-0.03,0,0,0.09,0.05,0.01,137.123492332874,148.355236250884,164.68487090437
35:31.777,0,-0.02,-0.03,0,0,0.09,0.05,0.01,136.709501840269,148.193134507674,164.571888436827
35:31.786,0,0,-0.1,0,0.01,0.16,0.03,-0.02,136.295511347656,148.031032764464,164.458905969286
35:31.798,0,0,-0.1,0,0.01,0.16,0.03,-0.02,135.881520855044,147.868931021254,164.345923501745
35:31.805,-0.01,-0.01,0,0,-0.01,-0.2,-0.02,0,136.015159530223,147.967102440727,164.569018899223
35:31.815,-0.01,-0.01,0,0,-0.01,-0.2,-0.02,0,136.148798205402,148.0652738602,164.792114296702
35:31.824,0,0.01,-0.03,-0.02,-0.01,0.09,-0.01,-0.03,136.282436880581,148.163445279672,165.015209694178
35:31.834,0,-0.01,0.02,0,-0.01,-0.12,0,0,136.41607555576,148.261616699147,165.238305091651
35:31.877,0,0.02,0.12,-0.02,0,0.11,-0.04,0,136.456588329127,148.118799505098,164.823751907781
35:31.889,0,0,0,-0.01,0,-0.17,-0.02,0,136.497101102495,147.975982311046,164.409198723915
35:31.897,0,0,0,-0.01,0,-0.17,-0.02,0,136.537613875862,147.833165116996,163.994645540057
35:31.906,0.01,-0.02,-0.04,-0.01,0,0.06,0.07,0,136.677776695356,147.810272197174,163.966386268643
35:31.916,0,0,-0.02,0,0,-0.07,0.03,-0.01,136.817939514851,147.787379277352,163.938126997231
35:31.924,0,0,0,0,0,-0.02,0.04,0.02,136.958102334345,147.764486357529,163.909867725817
35:31.933,-0.02,-0.01,-0.04,0,0,0.05,-0.02,-0.01,137.09826515384,147.741593437706,163.881608454404
35:31.944,-0.02,-0.01,-0.04,0,0,0.05,-0.02,-0.01,137.238427973331,147.718700517885,163.853349182991
35:31.985,0,-0.01,0,-0.02,-0.05,-0.15,-0.04,0,136.854535848674,147.881596753452,163.619385622966
35:31.994,0,-0.01,0,-0.02,-0.05,-0.15,-0.04,0,136.470643724017,148.04449298902,163.385422062944
35:32.003,0,-0.01,0,-0.02,-0.05,-0.15,-0.04,0,136.08675159936,148.207389224592,163.151458502914
35:32.011,0,0,0,0,-0.01,-0.03,-0.03,0,135.52033002313,148.184112830392,163.08521863706
35:32.021,0,0,0,0,-0.01,-0.03,-0.03,0,134.953908446914,148.160836436191,163.018978771206
35:32.030,0,0.03,0.05,0.06,0.03,0,-0.02,-0.01,134.387486870677,148.13756004199,162.95273890535
35:32.039,0,0.03,0.05,0.06,0.03,0,-0.02,-0.01,133.821065294447,148.114283647789,162.886499039495
35:32.050,0,0,0,-0.02,0.03,0.32,0,0.01,133.25464371821,148.091007253589,162.82025917364
35:32.058,0,0,0,-0.02,0.03,0.32,0,0.01,132.68822214198,148.067730859388,162.754019307786
35:32.113,-0.01,0,0,-0.03,-0.02,-0.08,-0.15,-0.03,131.923461288476,148.325991259035,162.816929488533
35:32.126,0.01,0.01,0.04,0,-0.02,0.14,0.02,-0.02,131.158700434957,148.584251658685,162.87983966928
35:32.136,0,-0.02,-0.03,0,-0.01,0.02,0.07,0,130.393939581438,148.842512058334,162.94274985003
35:32.147,-0.01,-0.02,-0.04,-0.07,-0.03,-0.02,-0.03,0.12,129.629178727933,149.100772457981,163.005660030778
35:32.156,0,0,0.05,0,-0.02,-0.16,0.01,-0.04,128.864417874414,149.35903285763,163.068570211526
35:32.165,0,0.16,-0.03,-0.03,0,0,0.03,0,128.099657020889,149.617293257278,171.234614198056
35:32.221,0,-0.04,0,0,0,0.12,-0.01,0.01,128.618359219174,149.432922087877,163.283264455855
35:32.230,0,0.01,-0.03,-0.02,-0.01,-0.15,-0.03,0,129.137061417467,149.248550918473,163.435048519434
35:32.240,0,0.01,-0.03,-0.02,-0.01,-0.15,-0.03,0,129.655763615759,149.064179749072,163.586832583016
35:32.251,0,-0.02,-0.01,-0.01,0,0.1,0.04,-0.01,130.174465814052,148.87980857967,163.738616646595
35:32.261,0,0,0.04,0,0,0,-0.03,-0.03,129.314181559464,148.848182495897,163.544754327537
35:32.272,0,0,0,-0.01,0,0,-0.02,-0.01,128.453897304877,148.816556412125,163.350892008481
35:32.319,0,-0.03,-0.05,-0.03,-0.01,0,0.02,0.02,128.317296927253,148.899611567303,163.488755722905
35:32.330,0,0,0,0.02,-0.01,-0.11,-0.02,0,128.180696549629,148.982666722479,163.626619437327
35:32.338,0,0,0,0.02,-0.01,-0.11,-0.02,0,128.044096172001,149.065721877658,163.76448315175
35:32.350,0,-0.01,-0.04,-0.04,-0.05,-0.14,-0.05,0,127.90749579437,149.148777032837,163.902346866173
35:32.358,0,-0.01,-0.04,-0.04,-0.05,-0.14,-0.05,0,127.770895416746,149.231832188013,164.040210580595
35:32.368,-0.01,0,0.12,0.01,0,-0.51,0,-0.01,128.157160734241,149.143934755898,163.842603042662
35:32.383,0.01,0.03,0.03,-0.01,0.01,0.05,-0.05,0.02,128.54342605174,149.056037323782,163.644995504725
35:32.438,-0.02,-0.04,-0.09,-0.01,-0.02,0.12,-0.04,-0.02,128.265367891119,148.558697735923,162.85585495425
35:32.448,-0.01,-0.01,0,0,0,0.15,0.02,-0.01,127.987309730503,148.061358148061,162.06671440378
35:32.458,0,0.01,0.02,-0.03,0,0.01,0.01,0,127.625776127796,147.954919771902,162.039803046685
35:32.467,0,0,-0.01,0,-0.01,0.07,0.01,-0.01,127.264242525096,147.84848139574,162.012891689589
35:32.476,0,0,-0.01,0,-0.01,0.07,0.01,-0.01,126.902708922396,147.742043019578,161.985980332493
35:32.487,0,0,-0.02,-0.01,-0.01,0.02,0,0,126.54117531969,147.635604643416,161.959068975398
35:32.495,0,0.01,-0.03,-0.01,0,-0.09,-0.02,0.01,126.179641716983,147.529166267256,161.932157618303
35:32.543,-0.01,0,0,-0.01,-0.06,-0.43,-0.05,0,125.818108114279,147.422727891098,170.309294477948
35:32.552,0,0,-0.03,-0.01,0.01,0.24,0,-0.01,124.123004484572,146.924396743743,161.378190575881
35:32.561,0,0,-0.03,-0.01,0.01,0.24,0,-0.01,122.427900854847,146.426065596388,160.851134890559
35:32.570,-0.01,0,0,0,0.02,-0.07,0,0.01,120.732797225239,145.927734449055,160.324079205238
35:32.580,-0.01,0,0,0,0.02,-0.07,0,0.01,119.037693595543,145.429403301699,159.797023519917
35:32.588,0,-0.01,-0.01,0,0,0.28,0.01,-0.01,117.342589965905,144.931072154355,159.269967834611
35:32.598,0,-0.01,-0.01,0,0,0.28,0.01,-0.01,115.647486336209,144.432741007004,158.742912149282
35:32.639,0,-0.01,-0.02,-0.04,0,-0.09,-0.03,0,115.376183583488,144.282425901759,158.699498947147
35:32.648,0,0,0.13,0,-0.01,-0.12,-0.02,0,115.104880830771,144.132110796516,158.656085745013
35:32.658,0,0,0.13,0,-0.01,-0.12,-0.02,0,115.031711811505,144.351898514544,158.787282866386
35:32.666,0,0,0.03,0,0.03,0.07,-0.01,0.02,114.958542792243,144.571686232568,158.918479987758
35:32.676,-0.01,0.01,0.01,-0.02,0,0.03,0,-0.01,114.885373772977,144.7914739506,159.049677109131
35:32.687,-0.01,-0.02,-0.01,-0.02,-0.06,-0.2,-0.07,-0.05,114.812204753711,145.011261668629,159.1808742305
35:32.695,-0.01,-0.01,-0.04,0.01,0,-0.41,0.01,0,114.739035734447,145.231049386661,159.312071351869
35:32.705,-0.01,0.02,0,0,0.03,0.14,0,-0.02,113.518779163132,145.061756291445,159.112843074739
35:32.713,-0.01,0.02,0,0,0.03,0.14,0,-0.02,112.298522591809,144.892463196227,158.913614797606
35:32.753,0,0,0.03,0,-0.03,-0.39,-0.04,0,113.105470943963,144.920889358091,158.682208094564
35:32.765,0,0,-0.01,-0.02,-0.03,0.08,0.01,0,113.912419296073,144.949315519953,158.450801391526
35:32.780,0,0,-0.01,-0.02,-0.03,0.08,0.01,0,114.719367648242,144.977741681817,158.219394688484
35:32.793,0,0.01,0.07,0.05,0,0.23,0.06,0.01,115.526316000396,145.00616784368,157.987987985449
35:32.806,0,-0.06,-0.14,0.02,0.01,0.13,0.02,0.01,115.113608664993,145.261313808204,157.964235625602
35:32.816,0,-0.01,-0.04,-0.03,-0.06,-0.17,-0.07,-0.01,114.700901329583,145.516459772732,157.940483265754
35:32.858,0,0,0.02,0,0.01,0,-0.04,0,114.937477108586,145.473274267086,157.721340157772
35:32.869,0,-0.01,-0.04,-0.03,-0.03,-0.07,-0.04,-0.02,115.174052887589,145.430088761439,157.502197049791
35:32.881,0,-0.01,-0.04,-0.03,-0.03,-0.07,-0.04,-0.02,115.410628666599,145.386903255793,157.283053941806
35:32.892,-0.02,-0.06,0,-0.02,-0.03,-0.13,-0.04,-0.02,115.647204445602,145.343717750146,157.063910833822
35:32.903,-0.02,-0.06,0,-0.02,-0.03,-0.13,-0.04,-0.02,115.883780224605,145.3005322445,156.844767725837
35:32.912,0,-0.01,-0.04,-0.06,-0.06,-0.47,0.01,0,116.243474877716,145.389148731564,156.949748049732
35:32.922,0,-0.01,-0.04,-0.06,-0.06,-0.47,0.01,0,116.603169530827,145.477765218628,157.054728373627
35:32.931,-0.01,0,-0.01,0.04,0,0.17,0.05,-0.01,116.962864183937,145.566381705693,157.159708697523
35:32.973,0,-0.01,0,-0.02,0.02,0.15,-0.03,0,116.533766650537,145.531729081379,157.070581372417
35:32.984,0,-0.01,0,-0.02,0.02,0.15,-0.03,0,116.104669117143,145.497076457066,156.981454047311
35:32.992,0,0,-0.03,0,-0.06,-0.58,-0.03,0,115.67557158375,145.462423832753,156.892326722205
35:33.001,0,0,-0.03,0,-0.06,-0.58,-0.03,0,115.378316082948,145.295109721226,156.754513014987
35:33.011,0,0.03,0.15,0.03,0.02,0.36,-0.01,-0.01,115.081060582146,145.127795609698,156.616699307771
35:33.020,0,0.03,0.15,0.03,0.02,0.36,-0.01,-0.01,114.783805081359,144.960481498177,156.478885600554
35:33.031,0,0,-0.05,-0.02,0,-0.07,-0.02,0.01,114.486549580564,144.793167386654,156.341071893337
35:33.068,0,-0.03,0,0.03,0.01,-0.02,-0.02,0,114.503324071043,144.715594022434,156.34538923219
35:33.078,0,0,-0.02,0,0,0.03,0,0.02,114.520098561522,144.638020658213,156.349706571042
35:33.087,0,-0.02,-0.02,0,0,0,-0.02,-0.01,114.536873052001,144.560447293994,156.354023909895
35:33.097,-0.01,-0.02,-0.1,0,0.02,0.29,-0.04,-0.01,114.577778565701,144.582605252267,156.439188729786
35:33.106,-0.01,-0.02,-0.1,0,0.02,0.29,-0.04,-0.01,114.618684079401,144.60476321054,156.524353549677
35:33.118,-0.01,-0.02,-0.09,-0.02,0.01,0.12,0.03,-0.01,114.6595895931,144.626921168813,156.609518369567
35:33.135,0,0.02,0.05,0.03,-0.01,-0.1,-0.14,-0.02,114.700495106801,144.649079127087,156.694683189462
35:33.182,0,0.02,0.1,0.06,0,0,0.02,-0.01,114.646531008887,144.223450903104,156.155940921337
35:33.194,0.01,0,-0.05,0,0,-0.07,-0.02,0,114.592566910973,143.79782267912,155.617198653206
35:33.202,0.01,0,-0.05,0,0,-0.07,-0.02,0,114.53860281306,143.372194455143,155.078456385098
35:33.211,-0.01,-0.03,-0.02,-0.05,-0.03,-0.18,0,-0.02,114.405927527625,143.281957189322,154.785839967051
35:33.220,-0.01,-0.03,-0.02,-0.05,-0.03,-0.18,0,-0.02,114.27325224219,143.191719923501,154.493223548998
35:33.228,-0.01,-0.03,-0.02,-0.05,-0.03,-0.18,0,-0.02,114.140576956757,143.101482657682,154.200607130952
35:33.238,0,-0.02,-0.02,-0.01,0.01,0.14,0.03,0.02,114.007901671321,143.011245391861,153.907990712898
35:33.250,-0.01,-0.02,0,0.05,0.02,-0.02,-0.03,0,113.875226385888,142.92100812604,153.615374294845
35:33.289,0,0,0.06,0.04,-0.02,-0.07,0,0,113.570962474787,142.5767638874,153.569749848455
35:33.297,0,-0.02,-0.06,0,-0.04,-0.04,0.03,0,113.266698563682,142.232519648756,153.524125402064
35:33.306,0,-0.02,0.02,-0.01,0,0.12,-0.03,-0.01,112.962434652589,141.888275410121,153.478500955674
35:33.314,-0.02,0,0.08,-0.04,0,0,0.02,0,112.315884308133,142.06414390287,153.65143164964
35:33.324,-0.02,0,0.08,-0.04,0,0,0.02,0,111.669333963655,142.24001239561,153.824362343599
35:33.333,0,0,-0.02,-0.03,0.01,0.01,-0.05,0,111.022783619177,142.415880888355,153.997293037552
35:33.343,0,0,-0.02,-0.03,0.01,0.01,-0.05,0,110.376233274685,142.591749381105,154.170223731515
35:33.354,0,-0.01,0,0.02,0.01,0,0,0,109.729682930207,142.767617873851,154.343154425474
35:33.363,0,0,0.01,-0.04,-0.04,0.02,0,-0.03,109.083132585743,142.943486366592,154.51608511943
35:33.405,0,0,0.01,0,-0.02,0.01,0,0,107.938099113599,143.138771479416,155.0515204486
35:33.413,-0.01,0,0.04,0.02,0.01,0.15,0.08,-0.01,106.793065641468,143.334056592237,155.586955777762
35:33.422,0,0,0.07,-0.02,-0.01,0.19,-0.01,0,106.827073170233,143.269918271946,155.596078824901
35:33.432,-0.03,0.04,-0.1,-0.03,-0.05,-0.14,-0.03,-0.03,106.861080698998,143.205779951658,155.60520187204
35:33.441,-0.03,0.04,-0.1,-0.03,-0.05,-0.14,-0.03,-0.03,106.895088227762,143.141641631369,155.614324919178
35:33.450,0.01,0.01,0.02,0,-0.02,-0.14,-0.05,-0.01,106.929095756527,143.077503311079,155.623447966316
35:33.459,0.01,0.01,0.02,0,-0.02,-0.14,-0.05,-0.01,106.963103285291,143.01336499079,155.632571013455
35:33.467,0,0,0.03,0.03,0.02,-0.02,0,0,107.315497948166,143.562435746422,156.099655371971
35:33.506,-0.01,-0.02,-0.03,0.03,0.05,-0.02,-0.02,0,107.667892611043,144.111506502055,156.566739730486
35:33.515,-0.02,-0.03,0,-0.02,0,0.01,0,0,107.373544777583,144.101577413697,156.543610096653
35:33.524,-0.02,-0.03,0,-0.02,0,0.01,0,0,107.079196944134,144.091648325339,156.520480462819
35:33.537,0,0,0.02,-0.02,-0.05,-0.12,0,0,106.784849110678,144.081719236981,156.497350828986
35:33.551,0,0,-0.05,-0.01,0.01,0.09,0,0,106.490501277236,144.071790148624,156.474221195153
35:33.564,0,0,-0.05,-0.01,0.01,0.09,0,0,106.196153443787,144.061861060266,156.45109156132
35:33.576,0,0.01,0.03,0.04,0,0.17,0,0,106.685365286299,143.745444556524,156.378414390384
35:33.618,0,0.01,0.01,0.01,0.01,0.04,-0.01,0,107.174577128812,143.429028052782,156.305737219449
35:33.627,0,0,0.01,-0.01,0,-0.21,-0.09,0,107.272007278321,143.444559320473,156.509613653627
35:33.636,0,0.01,0.07,-0.01,-0.03,0.09,-0.04,0.01,107.369437427838,143.460090588164,156.713490087815
35:33.646,0,0.01,0.07,-0.01,-0.03,0.09,-0.04,0.01,107.466867577346,143.475621855855,156.917366521986
35:33.655,-0.01,-0.01,-0.04,-0.02,0,0.02,0,-0.01,107.564297726858,143.491153123546,157.121242956164
35:33.667,0,0,-0.01,0,-0.01,0.11,-0.01,-0.02,107.66172787637,143.506684391236,157.325119390342
35:33.675,0,-0.01,-0.19,-0.03,-0.03,-0.3,0,-0.01,107.75915802588,143.522215658927,157.528995824516
35:33.685,0,-0.01,-0.19,-0.03,-0.03,-0.3,0,-0.01,107.569372768945,143.458478268351,157.382062333996
35:33.728,0,0,0,0,0,-0.34,-0.01,0,107.379587512012,143.394740877775,157.235128843478
35:33.738,-0.01,-0.01,0,-0.01,-0.02,0,0,-0.01,107.050755173535,143.716696395211,157.46437268459
35:33.747,0,0.04,0.05,-0.02,-0.03,-0.23,0.01,0,106.721922835059,144.038651912648,157.693616525699
35:33.758,0,-0.02,0,0.02,0.01,0.2,0,0.01,106.393090496582,144.360607430082,157.922860366813
35:33.769,0,0.05,0.13,0,0.02,0.2,-0.01,0,106.064258158098,144.682562947524,158.152104207933
35:33.779,0,0.03,0.17,0.04,-0.02,-0.03,0,0.01,105.899223309605,144.756296496909,158.32995259239
35:33.788,0,-0.02,-0.05,0.04,0.01,0,0.01,0.01,105.734188461112,144.830030046293,158.507800976844
35:33.799,0,0.01,-0.08,0,0.04,-0.12,-0.01,-0.01,105.569153612618,144.903763595679,158.685649361305
35:33.840,-0.02,0.01,0.07,0.01,0.02,0.07,0.02,-0.01,105.913885178794,144.846098276327,158.617987489892
35:33.850,-0.02,0.01,0.07,0.01,0.02,0.07,0.02,-0.01,106.258616744977,144.788432956974,158.550325618478
35:33.859,0,-0.01,-0.05,-0.04,-0.02,-0.07,0,0,106.603348311161,144.730767637621,158.482663747065
35:33.868,0,-0.01,-0.03,-0.02,-0.01,0,0,0,106.948079877337,144.67310231827,158.415001875654
35:33.877,0,-0.01,-0.03,-0.02,-0.01,0,0,0,107.055034801109,144.800365071874,158.543817426185
35:33.886,0,-0.01,-0.03,-0.02,-0.01,0,0,0,107.161989724886,144.927627825478,158.672632976723
35:33.895,-0.01,0,-0.06,-0.05,-0.01,0.17,0.05,-0.01,107.268944648658,145.054890579082,158.801448527254
35:33.904,0,0,0,0.01,0.02,0,0,0,107.375899572431,145.182153332687,158.930264077786
35:33.949,0,-0.09,-0.11,-0.04,-0.03,-0.09,-0.02,-0.01,107.744418336508,145.643274117136,159.275731757152
35:33.964,-0.01,-0.02,0,0,-0.04,-0.31,0,0,108.112937100585,146.104394901582,159.621199436522
35:33.976,0.01,-0.01,-0.04,0,0.02,0.19,-0.06,-0.01,108.093586700763,146.438433394807,159.969349311148
35:33.986,0,-0.01,-0.06,0.04,0.04,-0.02,0,0,108.074236300943,146.772471888038,160.317499185781
35:33.996,0,-0.01,-0.06,0.04,0.04,-0.02,0,0,108.054885901122,147.106510381273,160.6656490604
35:34.005,-0.01,-0.01,0,0.01,-0.03,0.06,0,0,108.035535501301,147.4405488745,161.013798935019
35:34.013,0,0,0,-0.01,0.02,0.17,0.01,0.02,108.01618510148,147.77458736772,161.36194880963
35:34.055,-0.02,0,0.03,0.03,0,-0.01,-0.03,0,108.264144855581,148.137355596838,161.50019559461
35:34.065,-0.02,0,0.03,0.03,0,-0.01,-0.03,0,108.512104609683,148.500123825957,161.638442379586
35:34.075,-0.02,0,-0.05,-0.04,-0.02,0.02,0.01,0,108.760064363778,148.862892055076,161.776689164562
35:34.084,-0.02,0,-0.05,-0.04,-0.02,0.02,0.01,0,109.00802411788,149.225660284199,161.914935949546
35:34.093,0,0,-0.01,0.04,-0.02,0.01,0.01,0.01,108.727013280073,149.358966142406,162.271578773216
35:34.105,-0.01,-0.02,0.03,-0.03,-0.03,-0.03,-0.01,0,108.446002442273,149.492272000609,162.628221596882
35:34.118,0,-0.02,-0.08,0.02,0.01,0.01,0.03,0,108.164991604477,149.625577858814,162.984864420541
35:34.157,0,-0.03,0,-0.03,0,0.19,-0.16,-0.01,107.787143172005,149.496752936824,162.812697219075
35:34.166,-0.02,-0.01,-0.05,-0.01,0,0.03,0.01,-0.01,107.409294739547,149.367928014835,162.640530017612
35:34.177,0,0.01,-0.01,0.01,0,-0.02,0.01,0,107.031446307075,149.239103092841,162.468362816144
35:34.189,-0.01,0,-0.07,-0.01,-0.05,-0.14,0.02,0,107.282736307945,149.059875931915,162.567359965413
35:34.200,-0.02,-0.03,-0.1,0,-0.01,-0.14,-0.02,-0.02,107.534026308807,148.880648770993,162.666357114678
35:34.212,0,0.01,0.02,-0.03,-0.01,-0.35,-0.01,0,107.785316309681,148.701421610061,162.765354263951
35:34.221,0,0.01,0.02,-0.03,-0.01,-0.35,-0.01,0,108.036606310554,148.522194449137,162.86435141322
35:34.230,0,-0.04,-0.05,0,-0.06,-0.05,0.01,0.01,108.812294749267,148.402044550147,162.574669773454
35:34.272,0,-0.02,-0.08,0,0,-0.18,-0.02,-0.01,109.587983187987,148.281894651157,162.284988133688
35:34.280,0,-0.02,-0.08,0,0,-0.18,-0.02,-0.01,109.535396858604,148.156145586015,162.282665545035
35:34.292,0,0.03,0.04,-0.04,-0.02,0.05,0,0.01,109.48281052922,148.030396520869,162.280342956381
35:34.303,0,0.03,0.04,-0.04,-0.02,0.05,0,0.01,109.430224199838,147.904647455727,162.278020367728
35:34.312,0,0.01,-0.01,-0.02,0,0.14,0,-0.02,109.377637870455,147.778898390585,162.275697779075
35:34.321,0,0.01,-0.01,-0.02,0,0.14,0,-0.02,109.113685212196,147.800183937304,162.384016816782
35:34.337,0,0.05,0,0,0.02,-0.11,0.02,-0.01,108.849732553936,147.821469484023,162.492335854488
35:34.383,0,0.03,0,-0.04,-0.01,0.07,0,0,108.938385747584,147.676453058371,162.227014730957
35:34.392,0,-0.06,-0.01,-0.02,0.01,0.06,0,0,109.027038941234,147.531436632717,161.961693607431
35:34.401,0,0.02,0.01,0,-0.01,0.12,0,0,109.115692134883,147.38642020707,161.696372483904
35:34.410,0,0,0.09,0.02,0.02,0.26,0.05,0,109.204345328531,147.241403781419,161.431051360374
35:34.418,-0.01,-0.02,-0.05,-0.02,-0.04,0.02,0,-0.01,109.250765009312,147.492560038509,161.548326609078
35:34.427,-0.01,-0.02,-0.05,-0.02,-0.04,0.02,0,-0.01,109.297184690094,147.743716295594,161.665601857781
35:34.436,0,0,0,-0.03,-0.03,-0.13,-0.02,-0.01,109.343604370874,147.994872552676,161.782877106487
35:34.447,0,0,0,-0.03,-0.03,-0.13,-0.02,-0.01,109.390024051656,148.246028809768,161.900152355194
35:34.489,0,0.04,0,0,0,-0.13,-0.1,-0.03,108.752614268029,147.835991321332,161.630731565088
35:34.500,0,-0.08,0.02,0.02,0,0.15,-0.12,0,108.115204484391,147.425953832899,161.361310774984
35:34.509,0,-0.08,0.02,0.02,0,0.15,-0.12,0,107.477794700768,147.015916344459,161.091889984877
35:34.517,0,0.1,0,-0.03,0,-0.19,0.01,0,106.840384917115,146.605878856008,160.822469194769
35:34.526,-0.02,0.04,-0.04,-0.01,-0.02,0,-0.05,0,106.790749426831,146.399360379344,160.736976037702
35:34.536,-0.01,-0.04,0,0.05,0.04,0.33,0.05,0,106.741113936547,146.192841902683,160.651482880638
35:34.545,-0.01,-0.04,0,0.05,0.04,0.33,0.05,0,106.691478446261,145.986323426019,160.565989723573
35:34.555,0,-0.04,-0.02,-0.02,-0.02,0.19,0,0,106.641842955976,145.779804949359,160.480496566506
35:34.595,0,-0.04,0.02,0.01,0.03,-0.14,-0.03,0,106.823073411746,145.9331910226,160.617061598294
35:34.603,0,-0.04,0.02,0.01,0.03,-0.14,-0.03,0,107.004303867514,146.086577095835,160.753626630081
35:34.615,-0.02,0,-0.05,0,0.02,0.03,0.02,0,107.185534323282,146.239963169077,160.890191661867
35:34.623,-0.02,0,-0.05,0,0.02,0.03,0.02,0,107.366764779057,146.393349242322,161.026756693656
35:34.634,0,-0.08,-0.04,-0.02,0,0.03,-0.02,0,107.631727052099,146.328031888484,160.854847929408
35:34.650,0,0.02,-0.01,-0.01,0.02,-0.06,0.01,0,107.896689325142,146.262714534647,160.682939165163
35:34.665,-0.01,-0.02,-0.03,-0.02,-0.02,0.04,0.01,-0.01,108.161651598191,146.197397180807,160.51103040091
35:34.707,0,-0.07,0,0.02,0,-0.07,0,0.01,107.80908422219,146.072527186223,160.448488290796
35:34.715,0,0.04,-0.05,-0.04,-0.04,0.14,0.02,0.02,107.456516846192,145.947657191641,160.385946180682
35:34.725,0,0.04,-0.05,-0.04,-0.04,0.14,0.02,0.02,107.103949470191,145.822787197057,160.323404070567
35:34.734,0,0.01,0.03,0,-0.01,-0.05,-0.02,-0.01,107.139726178619,145.965921691903,160.435533358246
35:34.743,0,0.01,0.03,0,-0.01,-0.05,-0.02,-0.01,107.175502887047,146.10905618675,160.547662645928
35:34.752,0,0.01,0.03,0,-0.01,-0.05,-0.02,-0.01,107.211279595474,146.252190681598,160.659791933605
35:34.761,0,0.05,0.02,0.02,-0.05,0,-0.01,-0.01,107.247056303902,146.395325176446,160.771921221283
35:34.772,0,0.05,0.02,0.02,-0.05,0,-0.01,-0.01,107.28283301233,146.538459671293,160.884050508963
35:34.813,0,0,0.03,0.02,0.02,0.04,-0.02,0,107.432650612573,146.352828942085,161.090441139298
35:34.823,0,0,0.03,0.02,0.02,0.04,-0.02,0,107.582468212815,146.167198212876,161.296831769632
35:34.832,0,0,0.03,0.02,0.02,0.04,-0.02,0,107.732285813054,145.981567483672,161.503222399962
35:34.840,0,-0.02,0.02,0.05,0.04,-0.04,-0.03,-0.01,107.577324727787,145.964169652112,161.48050212993
35:34.850,-0.02,-0.04,0,0.03,0.03,0.17,0.02,0,107.42236364253,145.946771820552,161.457781859898
35:34.858,-0.02,-0.04,0,0.03,0.03,0.17,0.02,0,107.267402557263,145.929373988993,161.435061589866
35:34.867,-0.02,-0.04,0,0.03,0.03,0.17,0.02,0,107.112441471992,145.911976157433,161.412341319833
35:34.878,0,0.02,-0.01,-0.05,-0.05,-0.3,-0.02,0,106.957480386722,145.894578325874,161.3896210498
35:34.888,0,-0.03,0,0.01,0.01,0.19,0.03,0,106.802519301458,145.877180494315,161.366900779768
35:34.928,0,-0.07,-0.01,0,0.01,0.12,0.02,0,106.982513332514,146.008388868988,161.549990265476
35:34.936,-0.01,-0.04,-0.01,0,-0.05,-0.04,-0.04,-0.02,107.162507363573,146.139597243663,161.733079751186
35:34.946,-0.01,-0.04,-0.01,0,-0.05,-0.04,-0.04,-0.02,107.145218553902,146.001118647728,161.444443731496
35:34.955,0,-0.04,0.05,-0.01,-0.05,0.09,0,0,107.127929744232,145.862640051794,161.15580771181
35:34.964,0,-0.04,0.05,-0.01,-0.05,0.09,0,0,107.11064093456,145.724161455856,160.867171692116
35:34.976,-0.01,0.07,0.03,0.07,0.06,0,0,0,107.093352124889,145.585682859921,160.57853567243
35:34.984,-0.01,0.07,0.03,0.07,0.06,0,0,0,107.076063315218,145.447204263988,160.289899652736
35:34.993,0.01,0.05,-0.07,-0.05,-0.05,-0.27,-0.11,-0.01,107.058774505547,145.308725668053,168.271330566219
35:35.039,0,-0.12,-0.09,0,0.02,-0.13,0,0.01,106.731022500804,145.445554382492,160.025403488594
35:35.055,0,0.01,0.02,-0.03,0.01,0.06,0,0,106.403270496063,145.582383096938,160.049543344139
35:35.069,0,0.01,0.02,-0.03,0.01,0.06,0,0,106.075518491314,145.71921181138,160.073683199685
35:35.081,-0.01,0.1,0,-0.09,-0.08,0.03,0.02,-0.01,105.747766486573,145.85604052582,160.097823055231
35:35.092,0,0.07,0.01,0.03,0.09,-0.09,-0.02,-0.02,106.075115296797,145.982938162689,160.373848377538
35:35.101,-0.01,0.38,0,0,0,0.05,-0.03,-0.02,106.402464107025,146.109835799561,160.649873699844
35:35.148,0,-0.02,0.04,0,0,0.03,0,0,105.726649241638,146.373641395967,160.605188926565
35:35.160,0,-0.1,-0.06,0.01,0.01,0.04,-0.08,-0.01,105.050834376234,146.637446992372,160.560504153285
35:35.167,0,-0.1,-0.06,0.01,0.01,0.04,-0.08,-0.01,104.375019510844,146.901252588776,160.515819380005
35:35.178,0,-0.1,-0.04,-0.04,-0.03,0.11,0.07,0,104.375799434811,146.806107118121,160.219211078176
35:35.188,0,-0.1,-0.04,-0.04,-0.03,0.11,0.07,0,104.376579358779,146.710961647465,159.922602776343
35:35.196,0,-0.18,-0.03,0,0,-0.52,0,-0.01,104.377359282746,146.61581617681,159.625994474518
35:35.208,0,0.12,0.03,0.01,0.03,-0.14,-0.06,-0.02,104.378139206713,146.520670706155,159.329386172692
35:35.216,0,-0.21,-0.03,-0.02,-0.02,0.15,0,0.01,104.378919130681,146.425525235502,159.032777870874
35:35.258,0,0.05,-0.01,0.01,-0.04,0.07,0.01,0.02,103.858034710167,146.26320180405,159.107428057115
35:35.267,0,0.05,-0.01,0.01,-0.04,0.07,0.01,0.02,103.337150289648,146.100878372595,159.182078243357
35:35.276,-0.02,-0.06,-0.01,0.02,0,-0.03,-0.02,0,103.585208105811,145.98229508471,159.156485296635
35:35.285,0,0.11,0.04,0,0.02,0.1,-0.02,0,103.833265921967,145.86371179683,159.130892349913
35:35.295,0,-0.14,-0.04,0.02,-0.01,0.22,0.03,0.01,104.081323738123,145.745128508948,159.105299403191
35:35.303,0,-0.14,-0.04,0.02,-0.01,0.22,0.03,0.01,104.329381554282,145.626545221064,159.079706456469
35:35.312,0,-0.14,-0.04,0.02,-0.01,0.22,0.03,0.01,104.577439370445,145.507961933179,159.054113509747
35:35.321,0.01,0.16,-0.01,0.03,0,0.03,0,0,105.030365225626,145.941473892864,159.240205380362
35:35.363,-0.01,0.03,-0.01,0.01,0.12,0.38,0.02,-0.01,105.483291080811,146.374985852552,159.426297250975
35:35.372,-0.01,0.03,-0.01,0.01,0.12,0.38,0.02,-0.01,105.936216935996,146.808497812239,159.61238912159
35:35.384,0,-0.07,0.01,-0.01,-0.12,-0.21,-0.04,-0.02,105.776040225763,146.512612966708,159.485116556962
35:35.400,0,-0.02,0,-0.02,0.02,-0.11,-0.05,-0.02,105.615863515537,146.216728121193,159.357843992337
35:35.415,0,0.14,-0.06,0,-0.21,-0.32,-0.11,0,105.455686805308,145.920843275662,159.230571427708
35:35.424,0,0.14,-0.06,0,-0.21,-0.32,-0.11,0,105.295510095082,145.624958430137,159.103298863083
35:35.433,-0.03,-0.08,-0.01,0.02,-0.1,-0.18,-0.03,0,105.135333384851,145.329073584601,165.915353225028
35:35.475,0,0.01,0.03,0,0.01,-0.28,0.01,0.02,105.169604137014,145.557161422559,159.238742994472
35:35.484,0,0.01,0.03,0,0.01,-0.28,0.01,0.02,105.203874889177,145.78524926052,159.501459690495
35:35.493,0,0.01,0.03,0,0.01,-0.28,0.01,0.02,105.238145641339,146.013337098477,159.76417638651
35:35.501,0.01,0.21,0.01,0.02,0.01,0.36,0,0,105.272416393504,146.241424936441,160.026893082548
35:35.511,0,-0.13,-0.02,0.01,0.03,-0.33,0.09,-0.02,105.306687145667,146.469512774394,160.289609778571
35:35.523,0.03,0.06,0.06,-0.01,0.05,0.1,0.02,0.01,105.340957897831,146.697600612355,160.552326474601
35:35.531,0,0.13,0,0,-0.07,0.22,-0.04,-0.01,105.375228649994,146.92568845031,160.815043170624
35:35.541,-0.01,-0.08,-0.04,-0.03,-0.15,-0.05,-0.08,0.01,105.409499402158,147.153776288273,168.669818967702
35:35.585,0,-0.03,0,0.03,0.19,-0.14,0.02,0,105.009742084279,147.106481214838,161.30507861797
35:35.595,-0.02,0.02,0,-0.01,-0.09,-0.67,-0.04,-0.01,104.609984766401,147.0591861414,161.532397369294
35:35.603,-0.02,0.02,0,-0.01,-0.09,-0.67,-0.04,-0.01,104.210227448522,147.011891067964,161.759716120607
35:35.615,0,-0.02,0.09,0.01,-0.02,0.09,0.04,0,103.810470130637,146.964595994527,161.987034871923
35:35.623,0,-0.02,0.09,0.01,-0.02,0.09,0.04,0,103.410712812743,146.917300921092,162.214353623247
35:35.632,-0.02,0,0,-0.03,-0.18,-0.28,-0.07,-0.04,103.707850755898,147.025018019823,162.254172754039
35:35.643,-0.01,-0.32,-0.04,-0.03,-0.05,0.28,0.05,0,104.004988699053,147.132735118554,162.293991884831
35:35.652,-0.02,-0.04,-0.02,0.01,0.08,0.06,-0.04,0,104.302126642207,147.240452217288,162.333811015625
35:35.693,0,0.09,0.08,0,0.06,0,0.01,0,104.282995359632,147.201295409526,162.592125960025
35:35.704,-0.01,-0.14,-0.06,0.01,0.08,-0.09,0.01,0,104.263864077056,147.162138601765,162.850440904418
35:35.713,-0.01,0.42,0.01,-0.02,-0.04,0.02,0,-0.01,104.244732794482,147.122981794005,163.108755848814
35:35.723,0,0.07,-0.05,-0.05,-0.13,-0.31,-0.04,-0.02,104.285642518566,147.088358855498,163.089840269627
35:35.734,0.02,-0.14,0,0,0,-0.1,0.02,0.01,104.32655224265,147.053735916991,163.07092469044
35:35.749,-0.01,-0.05,-0.01,-0.02,0.02,0.24,0.04,0,104.367461966734,147.019112978484,163.052009111253
35:35.761,-0.01,-0.59,-0.02,-0.02,-0.07,-0.03,-0.03,-0.01,104.408371690819,146.984490039976,163.033093532066
35:35.801,-0.01,-0.22,-0.03,-0.02,-0.1,0,-0.02,0,105.103811204695,147.050608958855,163.681301645513
35:35.814,-0.01,-0.22,-0.03,-0.02,-0.1,0,-0.02,0,105.79925071857,147.116727877735,164.329509758958
35:35.821,0,0.15,0,-0.01,-0.02,0.11,0.05,0,105.724751088575,147.103068503479,164.287709910701
35:35.830,0,0.15,0,-0.01,-0.02,0.11,0.05,0,105.650251458577,147.089409129224,164.245910062444
35:35.840,0.01,0.11,-0.04,-0.03,-0.09,-0.01,-0.05,0,105.575751828583,147.075749754969,164.204110214187
35:35.850,0.01,0.11,-0.04,-0.03,-0.09,-0.01,-0.05,0,105.501252198588,147.062090380714,164.16231036593
35:35.862,-0.01,-0.24,0.02,0.02,0.18,-0.23,-0.04,-0.01,105.426752568592,147.048431006459,164.120510517672
35:35.872,-0.01,0,0,-0.07,-0.09,0.37,0.04,0,105.352252938595,147.034771632203,164.078710669416
35:35.918,-0.02,-0.08,0.03,0.01,0,0.08,0.07,-0.02,105.277753308598,147.021112257948,171.52034579626
35:35.927,-0.02,-0.08,0.03,0.01,0,0.08,0.07,-0.02,105.392735671758,146.98664307889,164.157538129522
35:35.937,0.01,-0.03,0.04,0.02,0.03,0.13,0.01,0,105.507718034918,146.952173899834,164.278165437885
35:35.947,0,0.17,0,0,0.09,0.16,0.02,0,105.622700398075,146.917704720776,164.398792746248
35:35.962,0.02,0.62,0.04,0,-0.01,-0.06,-0.08,-0.01,105.737682761235,146.883235541719,164.51942005461
35:35.977,-0.01,-0.26,-0.04,0.03,0.1,0.39,0.07,0.01,105.852665124399,146.848766362661,164.640047362976
35:36.028,0.01,-0.06,0.01,-0.03,-0.17,-0.38,0.06,-0.03,105.967647487558,146.814297183604,171.482021774345
35:36.039,-0.01,0.28,-0.01,0.01,-0.02,-0.18,0.01,0,105.434498219423,146.607855450109,164.889003573553
35:36.049,-0.01,0.28,-0.01,0.01,-0.02,-0.18,0.01,0,104.901348951258,146.401413716605,165.017332475771
35:36.059,0,-0.14,0.01,0.03,-0.06,-0.01,0,0.02,104.368199683115,146.194971983105,165.145661377988
35:36.069,0,-0.14,0.01,0.03,-0.06,-0.01,0,0.02,103.835050414971,145.988530249608,165.273990280206
35:36.078,0.01,0.39,0.03,-0.03,-0.03,-0.03,0.02,-0.01,103.909966782873,146.154165517495,165.396385668302
35:36.087,-0.04,-0.24,-0.03,0.04,0.02,0.13,-0.02,0,103.984883150775,146.319800785383,165.518781056398
35:36.126,-0.02,-0.12,-0.05,-0.02,0.13,0.02,0,-0.04,104.05979951868,146.485436053274,165.641176444498
35:36.135,0,0.27,0.14,-0.04,0.03,0.02,-0.04,0.01,104.227655505325,146.38368993209,165.617172592479
35:36.145,0,-0.21,0,-0.01,-0.05,0.03,-0.01,0,104.395511491974,146.281943810907,165.593168740458
35:36.155,0.01,0.45,0.04,0,0.15,-0.43,-0.01,-0.01,104.563367478611,146.180197689729,165.569164888439
35:36.165,0.01,0.45,0.04,0,0.15,-0.43,-0.01,-0.01,104.731223465256,146.078451568545,165.54516103642
35:36.176,-0.02,-0.13,-0.02,0.02,0.34,-0.05,-0.19,0,104.899079451898,145.976705447367,165.521157184401
35:36.185,-0.06,-0.27,-0.09,-0.02,-0.1,-0.12,0,0,105.031840706284,146.215750846674,165.70580680262
35:36.194,0.01,-0.02,0.06,-0.01,-0.08,0.15,0.1,0.01,105.164601960672,146.454796245983,165.890456420841
35:36.242,0.01,0,0.05,-0.03,-0.11,0.28,-0.05,-0.01,105.197331300251,146.448525231066,166.144918489445
35:36.251,-0.02,-0.29,0,-0.05,-0.02,-0.04,-0.03,-0.01,105.230060639829,146.44225421615,166.399380558039
35:36.262,-0.01,-0.35,-0.03,0.01,0.05,0.2,-0.02,0,105.262789979408,146.435983201233,166.653842626642
35:36.272,-0.01,-0.35,-0.03,0.01,0.05,0.2,-0.02,0,105.295519318985,146.429712186316,166.908304695229
35:36.281,-0.01,0.06,0,-0.04,-0.02,-0.3,0,0,105.328248658564,146.423441171401,167.162766763824
35:36.293,-0.01,0.06,0,-0.04,-0.02,-0.3,0,0,105.360977998142,146.417170156484,171.246744317647
35:36.349,0.03,-0.14,0.04,0.06,0.14,0.2,-0.01,0.01,105.138347708391,146.411355366904,167.243619153669
35:36.359,0,0.13,0,-0.01,0,-0.03,-0.08,0,104.915717418648,146.405540577324,167.070009474912
35:36.369,0,0.13,0,-0.01,0,-0.03,-0.08,0,104.693087128897,146.399725787744,166.896399796155
35:36.378,-0.02,-0.28,-0.01,0.01,0.27,0.21,-0.06,0.01,104.47045683915,146.393910998165,166.722790117405
35:36.387,-0.02,-0.28,-0.01,0.01,0.27,0.21,-0.06,0.01,104.493264767902,146.401210064739,166.795830848203
35:36.396,0,0.36,0.11,0.04,0,0.1,0,-0.01,104.516072696655,146.408509131313,166.868871579001
35:36.406,0,0.36,0.11,0.04,0,0.1,0,-0.01,104.538880625407,146.415808197888,166.941912309798
35:36.414,0.03,0.56,0.09,-0.01,-0.01,0.1,0.04,-0.01,104.56168855416,146.423107264462,167.014953040594
35:36.456,-0.02,0.07,-0.04,0.01,0.19,0.25,0.07,-0.01,104.795236343911,146.400339967323,166.903344016015
35:36.468,-0.02,0.07,-0.04,0.01,0.19,0.25,0.07,-0.01,105.028784133669,146.377572670183,166.791734991431
35:36.476,-0.02,0.07,-0.04,0.01,0.19,0.25,0.07,-0.01,105.262331923426,146.354805373043,166.680125966848
35:36.485,0.02,0.26,0.06,-0.01,-0.27,-0.07,-0.1,-0.04,105.340157038077,146.35730997988,166.730221832004
35:36.494,0,0.02,0.01,0,0.08,-0.19,-0.01,-0.02,105.417982152732,146.359814586718,166.780317697159
35:36.503,-0.01,-0.22,-0.06,-0.08,-0.08,0.11,0.03,0,105.495807267383,146.362319193556,166.830413562317
35:36.515,-0.05,-0.44,-0.04,-0.02,0.1,0.23,0.09,0.01,105.573632382037,146.364823800394,166.880509427473
35:36.522,0,0.01,0.05,-0.03,-0.18,0.03,0.01,0,105.651457496688,146.367328407232,166.930605292629
35:36.564,0,-0.06,-0.05,0.01,0.13,0.11,0.02,0.01,105.470529281107,146.175275459344,166.632987428766
35:36.572,0,-0.06,-0.05,0.01,0.13,0.11,0.02,0.01,105.289601065522,145.983222511455,166.335369564898
35:36.583,0.03,0.5,0.06,0.04,0.15,0.04,0,0,105.416976351784,146.029062985935,166.331402900877
35:36.592,0.03,0.5,0.06,0.04,0.15,0.04,0,0,105.544351638044,146.074903460415,166.327436236856
35:36.606,-0.01,-0.41,-0.01,0.02,0.1,-0.25,-0.02,0,105.671726924307,146.120743934895,166.323469572835
35:36.617,0,0.22,0.01,-0.03,-0.06,-0.23,0.06,0.01,105.799102210573,146.166584409375,166.319502908813
35:36.627,0.01,0.14,-0.02,0.06,-0.06,0.19,-0.04,0,105.926477496836,146.212424883855,170.584484902837
35:36.679,-0.02,-0.31,0,0.06,0.25,0.43,0,-0.01,105.630838221863,146.103896017074,166.228437522361
35:36.688,-0.02,-0.01,-0.07,0,0.08,-0.18,-0.03,-0.01,105.335198946887,145.995367150292,166.141338799927
35:36.698,-0.04,-0.14,-0.02,-0.02,-0.09,-0.24,-0.03,0,105.039559671917,145.88683828351,166.054240077496
35:36.705,-0.04,-0.14,-0.02,-0.02,-0.09,-0.24,-0.03,0,104.743920396941,145.778309416727,165.967141355062
35:36.716,-0.05,-0.12,-0.02,-0.01,0.01,-0.43,0.18,0.01,104.448281121971,145.669780549945,165.880042632629
35:36.724,0,0.05,0,-0.01,-0.08,-0.17,-0.05,-0.01,104.099306685999,145.94807174231,166.118194317998
35:36.733,0,0.05,0,-0.01,-0.08,-0.17,-0.05,-0.01,103.75033225002,146.226362934682,166.356346003373
35:36.742,0,0.13,0.03,-0.03,0.03,-0.26,-0.04,-0.01,103.401357814051,146.504654127046,166.59449768874
35:36.781,-0.01,-0.1,0,0.01,0.14,-0.1,-0.02,-0.02,103.184595499275,146.62674111329,166.625038321876
35:36.790,-0.01,-0.1,0,0.01,0.14,-0.1,-0.02,-0.02,102.967833184499,146.748828099535,166.655578955012
35:36.799,-0.01,0.26,0.02,0,-0.23,-0.55,-0.04,0,102.751070869723,146.870915085779,166.686119588148
35:36.810,0,0,-0.02,-0.01,0.02,0.16,-0.06,0,102.534308554939,146.993002072025,166.716660221285
35:36.820,-0.03,-0.29,-0.01,-0.04,0,0.14,0,0,102.31754624016,147.11508905827,166.74720085442
35:36.829,-0.03,-0.29,-0.01,-0.04,0,0.14,0,0,102.366093501999,147.121618255292,166.690994271209
35:36.840,-0.01,-0.07,-0.01,0,0.02,0.3,-0.03,0,102.414640763837,147.128147452313,166.634787687999
35:36.850,-0.01,-0.07,-0.01,0,0.02,0.3,-0.03,0,102.463188025676,147.134676649333,166.578581104789
35:36.891,0,-0.02,0.04,0,-0.03,0.36,0.02,-0.03,102.725103808407,147.157303024298,166.719540245169
35:36.904,0,0,-0.02,-0.02,-0.04,-0.37,-0.04,-0.02,102.987019591143,147.179929399264,166.860499385552
35:36.913,0,0,-0.02,-0.02,-0.04,-0.37,-0.04,-0.02,103.248935373871,147.202555774228,167.001458525927
35:36.921,0,0.01,-0.02,0,-0.05,0,0,-0.02,103.246822781678,147.046990363765,166.943396708532
35:36.932,0,0.01,-0.02,0,-0.05,0,0,-0.02,103.244710189486,146.891424953305,166.88533489114
35:36.949,0,0,-0.01,-0.03,0.15,-0.08,-0.03,0,103.242597597293,146.735859542838,166.827273073744
35:36.961,-0.03,-0.13,-0.03,0.01,-0.05,-0.03,0.03,0,103.2404850051,146.580294132375,166.769211256349
35:37.003,0.01,0.12,-0.04,-0.06,-0.12,-0.18,0,0,103.154157723565,146.347687233737,166.78002443081
35:37.012,0.01,0.12,-0.04,-0.06,-0.12,-0.18,0,0,103.067830442032,146.115080335104,166.79083760527
35:37.021,0.04,0.34,-0.03,0,0.17,0.12,0,0,103.209890378861,146.109220939019,166.730758016192
35:37.030,0.04,0.34,-0.03,0,0.17,0.12,0,0,103.3519503157,146.103361542933,166.670678427112
35:37.040,-0.01,-0.15,0,0,-0.05,-0.16,-0.03,0,103.494010252525,146.097502146848,166.610598838033
35:37.050,-0.01,-0.15,0,0,-0.05,-0.16,-0.03,0,103.636070189357,146.091642750763,166.550519248953
35:37.062,-0.02,-0.03,0,-0.04,0,0.04,0.03,-0.01,103.778130126186,146.085783354677,166.490439659874
