New EMG times,currentData_1,currentData_2,currentData_3,currentData_4,currentData_5,currentData_6,currentData_7,currentData_8,thumb,index,middle,ring,little
35:08.655,-0.01,0,0.02,-0.08,-0.02,0.02,0,-0.02,134.268767875781,137.634934274045,141.90529183398,148.493657641173,171.686881451301
35:09.335,-0.01,0,-0.01,-0.02,0,-0.04,-0.07,-0.01,133.823309514078,139.50625641687,143.894545244592,149.263753124284,174.213562293034
35:09.420,0,0,0.03,0.02,0,-0.13,0.01,-0.02,129.254502098163,139.054914970125,142.642826957395,148.079718145803,172.263080784306
35:09.488,-0.01,0.03,0.01,0.06,-0.01,-0.04,0.01,-0.01,129.170274411668,139.266429394983,143.918090133483,149.654115908058,173.139831751006
35:09.553,0,0.01,0,-0.03,0,0.22,0.06,0,130.05055103935,138.744770745846,144.110927181139,149.495839507525,173.362128546479
35:09.658,-0.02,0,0.02,0,0,0.11,0.02,0,131.313730433045,139.050133242788,144.484760878331,149.747456516887,149.747456516887
35:09.674,0,0.01,0.06,0,0,-0.05,-0.13,-0.01,132.576909826719,139.355495739735,144.858594575526,149.999073526247,149.999073526247
35:09.684,0,0.01,0.06,0,0,-0.05,-0.13,-0.01,133.840089220408,139.660858236683,145.232428272713,150.250690535613,150.250690535613
35:09.694,0,0,-0.05,-0.04,-0.01,0,0.09,0.01,133.777084173719,140.273818541384,145.394866145987,150.275115904236,150.275115904236
35:09.706,0,0.01,0.01,0,-0.02,-0.31,0,-0.02,133.71407912703,140.886778846078,145.557304019258,150.299541272859,150.299541272859
35:09.750,0,-0.02,-0.03,-0.06,-0.08,-0.42,0.04,0,133.491270331873,140.826156458214,145.478565604702,150.567318034522,150.567318034522
35:09.762,0,-0.02,0,0.07,0.01,-0.13,-0.03,0,133.268461536714,140.76553407035,145.399827190146,150.835094796188,150.835094796188
35:09.773,0,0.01,0.03,0,0,0.11,-0.02,0,133.045652741555,140.704911682486,145.321088775589,151.10287155785,151.10287155785
35:09.783,-0.01,-0.01,-0.07,-0.08,0,0.08,0,0,132.725265282352,141.328634656311,145.806895033027,151.901279560523,151.901279560523
35:09.793,0,0.04,0.04,0.09,0.04,-0.28,0.05,0,132.404877823152,141.952357630144,146.292701290455,152.699687563203,152.699687563203
35:09.807,0,-0.01,0.01,0.04,0.02,0.24,-0.04,0,132.084490363952,142.576080603976,146.77850754789,153.498095565883,153.498095565883
35:09.818,0,0,0,-0.04,-0.01,0.34,-0.03,-0.01,131.764102904745,143.199803577809,147.264313805332,154.296503568563,154.296503568563
35:09.873,-0.01,-0.03,-0.12,-0.03,0.01,0.22,0.05,0,131.44371544554,143.823526551645,147.750120062764,155.094911571241,179.982044606482
35:09.885,0,0.03,0.05,0,0.01,0.23,0.01,0,131.451540310751,143.38599961935,147.280071130976,154.411472656226,154.411472656226
35:09.895,0,0,0.02,-0.06,-0.01,0,-0.02,0,131.459365175962,142.948472687043,146.810022199192,153.728033741208,153.728033741208
35:09.903,0,0,0.02,-0.06,-0.01,0,-0.02,0,131.467190041173,142.510945754751,146.339973267401,153.044594826191,153.044594826191
35:09.915,-0.01,0,0.05,0.01,0,0.03,0,-0.01,131.475014906384,142.073418822452,145.86992433561,152.361155911189,152.361155911189
35:09.926,-0.02,0,-0.05,0,0,-0.08,-0.02,0,131.482839771595,141.635891890161,145.39987540384,151.677716996201,151.677716996201
35:09.968,0.02,-0.03,0.19,0.02,0.05,0.03,0.05,0.04,131.24176739987,141.580080055591,145.476924387848,151.835924431069,151.835924431069
35:09.977,0.02,-0.03,0.19,0.02,0.05,0.03,0.05,0.04,131.000695028144,141.524268221022,145.553973371856,151.994131865935,151.994131865935
35:09.988,-0.02,-0.03,-0.16,-0.03,-0.03,0.31,-0.11,-0.03,131.071572371824,141.866207874562,146.016543194251,152.111623447887,152.111623447887
35:10.001,0.01,-0.01,0.17,0.01,0,-0.06,0,-0.01,131.142449715504,142.208147528108,146.479113016656,152.229115029837,152.229115029837
35:10.015,0.02,0.02,0.05,0,0.06,0.77,0,-0.02,131.213327059182,142.55008718164,146.941682839053,152.346606611789,152.346606611789
35:10.024,0,0,0.03,0.04,0.02,-0.07,-0.06,-0.02,131.284204402862,142.892026835172,147.40425266145,152.464098193741,152.464098193741
35:10.035,0,0,-0.11,0.01,0,0.05,-0.08,0,131.355081746541,143.233966488712,147.866822483845,152.581589775694,176.03119039779
35:10.082,0.02,0.02,-0.04,0,0,-0.66,-0.14,0,133.197468332452,143.391417647126,148.172220025364,153.183442465233,153.183442465233
35:10.094,0.02,-0.02,-0.04,-0.02,0,0.33,0.14,0,135.039854918432,143.548868805541,148.477617566881,153.785295154754,153.785295154754
35:10.105,0.15,0,-0.09,0.01,0.06,0.29,0.01,0.01,136.882241504412,143.70631996396,148.783015108405,154.387147844303,154.387147844303
35:10.116,-0.07,0,0.01,-0.01,-0.04,-0.09,-0.11,-0.02,138.724628090305,143.863771122375,149.088412649915,154.989000533838,154.989000533838
35:10.126,-0.07,0,0.01,-0.01,-0.04,-0.09,-0.11,-0.02,140.804107589793,143.459447502813,148.410939070578,154.356819156215,154.356819156215
35:10.138,-0.07,-0.01,0.02,0.07,0.04,-0.26,0.07,0,142.883587089309,143.055123883249,147.733465491241,153.724637778578,153.724637778578
35:10.150,0.09,0,0,-0.05,-0.04,-0.34,0.06,0.02,144.963066588796,142.650800263691,147.055991911882,153.092456400947,153.092456400947
35:10.201,0.03,0.04,0.13,0.02,0.04,0.07,0.01,0,145.372624473228,142.556872220476,147.245119213791,154.033416762475,154.033416762475
35:10.216,0.05,0.03,0.03,-0.03,-0.03,-0.09,0,0,145.782182357663,142.462944177261,147.434246515699,154.974377124003,154.974377124003
35:10.227,0.21,-0.02,-0.09,0,0.03,0.27,0.14,0,147.383602092246,142.308720907184,147.402883260255,155.25696318581,155.25696318581
35:10.238,0.21,-0.02,-0.09,0,0.03,0.27,0.14,0,148.98502182684,142.154497637101,147.371520004811,155.539549247624,155.539549247624
35:10.249,-0.07,-0.05,-0.06,-0.06,0.01,0.54,0,0.01,150.586441561434,142.000274367023,147.340156749367,155.82213530943,155.82213530943
35:10.259,0.01,0,0.02,0,0,0,0.12,-0.01,152.187861295999,141.846051096949,147.308793493923,156.104721371234,156.104721371234
35:10.300,-0.02,0,0.06,0,-0.01,-0.08,-0.02,-0.01,153.742470966608,143.143843649945,147.381630362805,157.006046355018,157.006046355018
35:10.313,-0.05,-0.01,0.06,0.01,-0.02,-0.25,-0.05,-0.02,155.297080637189,144.441636202915,147.454467231684,157.907371338792,157.907371338792
35:10.322,-0.05,-0.01,0.06,0.01,-0.02,-0.25,-0.05,-0.02,156.851690307783,145.739428755885,147.527304100566,158.80869632258,158.80869632258
35:10.334,0.25,0.07,-0.05,0,-0.03,-0.19,-0.31,-0.09,157.351884344127,146.320723571138,148.241928255549,159.909353105904,159.909353105904
35:10.343,0.25,0.07,-0.05,0,-0.03,-0.19,-0.31,-0.09,157.852078380471,146.90201838639,148.956552410527,161.010009889229,161.010009889229
35:10.357,-0.06,-0.05,-0.04,0,-0.03,-0.01,0.05,0.03,158.3522724168,147.483313201636,149.671176565491,162.110666672554,162.110666672554
35:10.366,-0.09,0,0,-0.02,-0.04,-0.26,-0.09,-0.01,158.852466453129,148.064608016866,150.38580072044,163.211323455878,163.211323455878
35:10.408,-0.01,-0.01,-0.02,-0.03,0.02,-0.12,0.09,0.02,159.754578085573,148.945546147952,150.96955319876,163.561103636417,163.561103636417
35:10.418,-0.01,-0.01,-0.02,-0.03,0.02,-0.12,0.09,0.02,160.656689718016,149.826484279038,151.553305677087,163.910883816956,163.910883816956
35:10.429,0,-0.01,-0.06,0,0.01,0.52,-0.02,0,160.955025758965,150.138284153618,151.688988966973,164.029309628912,164.029309628912
35:10.441,-0.07,-0.01,0.04,0.03,0.02,0.12,0.08,-0.03,161.253361799914,150.450084028205,151.824672256858,164.147735440871,164.147735440871
35:10.453,-0.01,0.02,0.05,0,-0.04,-0.13,0,0.01,161.551697840863,150.761883902785,151.960355546744,164.266161252828,164.266161252828
35:10.463,-0.01,0.02,0.05,0,-0.04,-0.13,0,0.01,161.850033881805,151.073683777373,152.096038836629,164.384587064786,164.384587064786
35:10.475,-0.19,-0.02,-0.06,-0.04,-0.07,-0.41,-0.06,-0.02,162.148369922752,151.385483651959,152.231722126517,164.503012876742,179.693449748221
35:10.518,0.06,0.01,0,0.03,0.01,0.02,0.05,0.02,162.40138774196,151.605633508778,152.212311652274,164.363485482107,164.363485482107
35:10.529,0.01,-0.01,-0.01,0.01,0.02,-0.09,0.01,0.02,162.654405561167,151.825783365595,152.192901178032,164.22395808747,164.22395808747
35:10.540,0.01,-0.01,-0.01,0.01,0.02,-0.09,0.01,0.02,162.907423380377,152.045933222409,152.173490703789,164.084430692837,164.084430692837
35:10.551,0.02,-0.04,-0.08,-0.02,-0.04,-0.03,0,0,163.160441199587,152.266083079223,152.154080229546,163.944903298205,163.944903298205
35:10.563,0.01,0.01,0.09,0,-0.03,-0.11,0.03,0,163.20950399104,151.899648518825,152.157246287661,163.725663206698,163.725663206698
35:10.579,0,-0.05,-0.04,0.02,-0.02,-0.05,-0.05,-0.02,163.258566782493,151.533213958432,152.160412345776,163.506423115196,163.506423115196
35:10.631,0.02,0.03,0.02,0,0.03,0.05,0,0,163.442895783723,151.445779311372,151.406379645596,162.834173962459,162.834173962459
35:10.643,0.02,0.03,0.02,0,0.03,0.05,0,0,163.627224784948,151.358344664312,150.652346945426,162.161924809734,162.161924809734
35:10.654,0.01,0,-0.02,0,-0.01,-0.13,-0.02,0.01,163.613031009279,151.305301307001,150.494611365328,162.024766888033,162.024766888033
35:10.665,0.01,0,-0.02,0,-0.01,-0.13,-0.02,0.01,163.598837233611,151.252257949689,150.336875785229,161.887608966332,161.887608966332
35:10.676,0,0,-0.03,0.01,-0.03,-0.34,-0.01,0,163.584643457942,151.199214592378,150.179140205128,161.750451044631,161.750451044631
35:10.687,0,0,0.01,-0.02,-0.02,-0.11,-0.15,0,163.570449682273,151.146171235066,150.021404625029,161.613293122933,161.613293122933
35:10.697,0,0.02,0.05,0.05,0,0.15,0.04,0,163.556255906604,151.093127877752,149.863669044928,161.476135201232,161.476135201232
35:10.745,-0.01,0,-0.04,0,0.06,0.45,0.01,-0.01,163.542062130935,151.04008452044,149.705933464832,161.338977279531,173.22547455228
35:10.758,-0.02,-0.01,-0.03,-0.06,-0.03,-0.03,0.01,-0.03,163.560041612494,151.102202118753,149.675371030199,161.470851259079,161.470851259079
35:10.767,0.01,-0.01,-0.02,0.01,0.03,0.11,0,0,163.578021094053,151.164319717065,149.644808595565,161.602725238623,161.602725238623
35:10.780,0.01,-0.01,-0.02,0.01,0.03,0.11,0,0,163.596000575612,151.226437315378,149.614246160932,161.734599218173,161.734599218173
35:10.789,0.01,0.01,0,0.03,0.02,0.04,-0.02,-0.01,163.613980057172,151.288554913692,149.583683726297,161.866473197726,161.866473197726
35:10.801,0,0.01,0.12,-0.03,-0.01,0,0.02,0,163.631959538731,151.350672512004,149.553121291663,161.998347177277,174.230360602833
35:10.845,0,0,-0.06,-0.01,0.01,0.02,0.04,0.02,163.609602624638,151.439544320074,149.614140879069,162.174860164647,162.174860164647
35:10.856,-0.02,0,0.04,0.01,-0.01,-0.13,0,0,163.587245710545,151.528416128143,149.675160466477,162.351373152018,162.351373152018
35:10.866,0,0.01,0,-0.03,-0.06,-0.45,0,0,163.564888796452,151.617287936213,149.736180053883,162.527886139385,162.527886139385
35:10.878,0,0,0,-0.05,-0.02,-0.1,-0.03,-0.02,163.542531882359,151.706159744281,149.797199641287,162.704399126749,162.704399126749
35:10.890,-0.01,-0.04,-0.07,-0.06,-0.05,0.04,-0.01,-0.02,163.340363225991,151.676117182687,149.905779513374,162.63591240812,162.63591240812
35:10.901,-0.01,-0.04,-0.07,-0.06,-0.05,0.04,-0.01,-0.02,163.138194569627,151.646074621092,150.014359385459,162.567425689491,162.567425689491
35:10.913,0,0.01,0.07,0.01,0,0.03,-0.03,0.01,162.936025913255,151.616032059498,150.12293925755,162.498938970859,162.498938970859
35:10.971,0.01,0,0.01,0.03,0.01,-0.05,-0.01,0,162.987425395998,151.472178631946,150.299148797729,162.621865560686,162.621865560686
35:10.985,0.01,0,0.01,0.03,0.01,-0.05,-0.01,0,163.03882487874,151.328325204398,150.475358337904,162.744792150511,162.744792150511
35:10.995,0,0,-0.05,0.02,0.01,0.03,-0.04,0,162.652889641362,151.047883041727,150.335319626942,162.849802722204,162.849802722204
35:11.005,0,0,-0.05,0.02,0.01,0.03,-0.04,0,162.266954403982,150.767440879055,150.195280915981,162.954813293894,162.954813293894
35:11.017,-0.03,-0.03,-0.11,-0.03,0.01,0.29,0.04,0,161.881019166598,150.486998716384,150.055242205019,163.059823865588,163.059823865588
35:11.061,-0.01,-0.05,-0.1,0,-0.06,-0.57,-0.05,-0.01,161.498202464187,150.228589477545,150.21899503989,163.075459348031,163.075459348031
35:11.074,-0.01,0.02,0.02,-0.04,-0.02,0.04,0.02,0,161.11538576179,149.970180238714,150.382747874763,163.091094830473,163.091094830473
35:11.086,-0.01,0.02,0.02,-0.04,-0.02,0.04,0.02,0,160.732569059372,149.711770999871,150.546500709635,163.106730312916,163.106730312916
35:11.097,0,0,0.09,-0.03,0,0.25,-0.04,0,160.34975235696,149.453361761043,150.710253544508,163.122365795359,163.122365795359
35:11.107,0,0,0.09,-0.03,0,0.25,-0.04,0,160.014323993189,149.20978684934,150.61070567368,163.147478004777,163.147478004777
35:11.119,-0.01,-0.01,0,0,0,-0.44,0.05,0,159.678895629411,148.966211937637,150.511157802852,163.172590214195,163.172590214195
35:11.131,0,-0.04,-0.09,0.01,0.02,0.28,0.01,0,159.343467265637,148.72263702593,150.411609932022,163.197702423613,163.197702423613
35:11.173,0.01,0,0,0.01,0,0.05,0.04,0.02,159.446503859923,148.701326249255,150.567144747669,163.243311128123,163.243311128123
35:11.185,-0.01,-0.01,-0.05,-0.02,0.01,0.13,-0.01,-0.01,159.549540454207,148.68001547258,150.722679563314,163.288919832632,163.288919832632
35:11.195,0,0,0,-0.04,-0.06,0.12,-0.1,-0.01,159.65257704849,148.658704695905,150.878214378961,163.334528537142,163.334528537142
35:11.206,0,0,0,-0.04,-0.06,0.12,-0.1,-0.01,159.37664777871,148.636726137145,150.992009121319,163.410160584064,163.410160584064
35:11.217,0,-0.04,-0.09,0.02,0.02,0.38,0.07,0,159.100718508933,148.614747578384,151.10580386368,163.485792630985,163.485792630985
35:11.229,0,-0.04,-0.09,0.02,0.02,0.38,0.07,0,158.824789239159,148.592769019624,151.219598606036,163.561424677906,163.561424677906
35:11.240,-0.01,0.02,0.04,-0.02,0.01,-0.02,0.03,-0.04,158.548859969371,148.570790460863,151.333393348395,163.63705672483,163.63705672483
35:11.284,0.01,0.06,0.19,0,0,0.01,-0.18,-0.01,158.272930699604,148.548811902103,151.447188090753,163.712688771751,179.286855745446
35:11.297,-0.01,-0.01,0.07,-0.02,-0.01,0.1,0.01,0,158.174438985883,148.70665875755,151.830506365979,164.056101329294,164.056101329294
35:11.312,0.05,0,-0.04,0.06,0.04,-0.02,0.12,0.03,158.075947272162,148.864505612994,152.2138246412,164.399513886834,164.399513886834
35:11.330,-0.05,-0.09,-0.08,-0.05,-0.04,-0.02,-0.22,0.01,157.977455558439,149.022352468444,152.597142916427,164.742926444393,164.742926444393
35:11.341,-0.05,-0.09,-0.08,-0.05,-0.04,-0.02,-0.22,0.01,158.000788394535,148.883997209772,152.391777686878,164.60139848894,164.60139848894
35:11.387,-0.01,0,-0.02,0.07,0.03,0.02,-0.07,-0.04,158.024121230631,148.745641951104,152.186412457333,164.459870533487,164.459870533487
35:11.398,0,0,0.01,0,0.02,0.17,0.02,-0.02,158.081801949329,148.633768307842,152.003349096769,164.294356467102,164.294356467102
35:11.410,0,0,0.01,0,0.02,0.17,0.02,-0.02,158.139482668028,148.52189466458,151.820285736201,164.128842400722,164.128842400722
35:11.424,-0.01,0,0,0,-0.01,-0.18,-0.07,-0.02,158.197163386725,148.41002102132,151.637222375637,163.963328334343,163.963328334343
35:11.435,0.02,0.02,0.02,-0.02,-0.09,-0.2,-0.03,-0.03,158.128893101687,148.353249189448,151.177400853594,163.701586912859,163.701586912859
35:11.447,0.02,0.02,0.02,-0.02,-0.09,-0.2,-0.03,-0.03,158.060622816649,148.296477357574,150.717579331525,163.439845491375,163.439845491375
35:11.459,-0.01,-0.01,-0.03,-0.02,-0.02,-0.04,0.21,0.01,157.992352531612,148.239705525703,150.257757809493,163.178104069899,163.178104069899
35:11.506,0,0,-0.05,-0.03,-0.01,-0.13,0.08,0.03,158.570102673075,148.638727750513,150.407836343984,163.24188945972,163.24188945972
35:11.518,0,0.01,0.1,-0.01,-0.01,-0.08,-0.04,0.01,159.147852814531,149.037749975316,150.557914878473,163.305674849541,163.305674849541
35:11.528,0,0.01,0.1,-0.01,-0.01,-0.08,-0.04,0.01,159.566388979038,148.920412992136,150.288772437765,163.150654982732,163.150654982732
35:11.539,0,0,0.01,0,0.02,0.2,0.02,0.03,159.984925143566,148.803076008953,150.019629997048,162.995635115924,162.995635115924
35:11.551,0.01,-0.04,-0.04,0,0.04,0.37,-0.1,0,160.403461308073,148.685739025774,149.750487556339,162.840615249112,162.840615249112
35:11.562,-0.01,-0.03,-0.04,0,0.04,0.14,-0.2,-0.06,160.821997472573,148.568402042594,149.48134511563,162.685595382303,162.685595382303
35:11.605,0,0.01,0.02,0,0.04,0.22,0.02,0.03,160.896463273898,148.521834202216,149.049539428201,162.572522109491,162.572522109491
35:11.615,0,-0.03,-0.07,-0.01,-0.01,0.09,0.01,-0.02,160.970929075223,148.475266361837,148.617733740768,162.459448836679,162.459448836679
35:11.626,0,-0.03,-0.07,-0.01,-0.01,0.09,0.01,-0.02,162.115447732358,148.510417504153,148.26376565238,162.132707649809,162.132707649809
35:11.644,0.01,0,-0.03,-0.02,0.01,-0.09,0,0.04,163.259966389509,148.545568646468,147.909797563996,161.80596646294,161.80596646294
35:11.657,0,0.02,0,0.01,0,-0.03,-0.01,0,164.40448504666,148.580719788784,147.555829475605,161.47922527606,161.47922527606
35:11.673,0,0.01,0.02,0.04,0.04,0.09,0.13,0,164.796343826732,148.725769456145,147.679547959439,161.616995919993,161.616995919993
35:11.713,-0.01,-0.03,-0.11,-0.02,-0.03,0.3,0,-0.01,165.188202606805,148.870819123502,147.803266443271,161.754766563924,161.754766563924
35:11.725,0,-0.01,-0.03,0.02,0.01,-0.23,-0.25,0,165.185400811367,148.893817685126,147.776925002693,161.707921852265,161.707921852265
35:11.738,0,-0.01,-0.05,-0.02,-0.01,0.02,-0.11,-0.05,165.182599015929,148.916816246749,147.750583562115,161.661077140609,161.661077140609
35:11.751,-0.01,-0.04,0.01,0,0,-0.07,0.15,0,165.179797220491,148.939814808373,147.724242121538,161.614232428949,161.614232428949
35:11.765,-0.01,-0.04,0.01,0,0,-0.07,0.15,0,165.176995425052,148.962813369997,147.69790068096,161.56738771729,161.56738771729
35:11.775,0,0.01,0.11,0,-0.03,-0.07,-0.06,-0.01,165.174193629614,148.985811931622,147.671559240382,161.52054300563,161.52054300563
35:11.787,0,-0.01,-0.01,0,0,-0.21,0.01,0.01,165.171391834176,149.008810493246,147.645217799804,161.473698293971,176.203705614245
35:11.838,0,0.02,0,-0.02,-0.01,-0.06,0,-0.02,165.463431157499,149.143552042997,147.641017472504,161.187834925626,161.187834925626
35:11.850,-0.03,0,0.01,0,-0.01,0.26,-0.15,-0.03,165.755470480814,149.278293592743,147.636817145204,160.901971557279,160.901971557279
35:11.863,0.01,0,0.02,-0.03,0,0.09,0,0,166.047509804128,149.413035142494,147.632616817903,160.61610818893,160.61610818893
35:11.873,0,0,0,0.01,-0.03,0.03,0.03,0,166.339549127442,149.547776692241,147.628416490603,160.330244820587,160.330244820587
35:11.884,0,0,0,0.01,-0.03,0.03,0.03,0,166.939549995368,149.681861952125,148.172897492339,160.729974565347,160.729974565347
35:11.894,-0.01,-0.03,-0.17,-0.03,-0.04,-0.39,-0.09,-0.01,167.539550863294,149.81594721201,148.717378494068,161.129704310108,161.129704310108
35:11.943,0,0,-0.06,0,0.02,0.4,0.05,0.02,168.220518979557,149.695680498886,148.765435542495,161.004202878872,161.004202878872
35:11.954,0,0,-0.06,0,0.02,0.4,0.05,0.02,168.901487095805,149.575413785762,148.813492590921,160.87870144764,160.87870144764
35:11.964,0,0,-0.01,0.05,0,0,0.03,-0.03,169.582455212076,149.455147072636,148.861549639349,160.753200016403,160.753200016403
35:11.974,0,0,0.08,0,0.01,0.09,-0.01,0,170.32989914871,149.278903078422,148.820375375861,160.4909951929,160.4909951929
35:11.986,0,0,0.08,0,0.01,0.09,-0.01,0,171.077343085344,149.102659084208,148.779201112375,160.228790369401,160.228790369401
35:12.000,-0.02,0.01,0,-0.03,0,-0.19,-0.05,-0.04,171.824787022008,148.926415089994,148.738026848887,159.966585545895,159.966585545895
35:12.054,0.02,0.01,0.03,0.01,-0.04,-0.61,0.06,0.01,172.572230958623,148.750171095783,148.6968525854,159.704380722395,172.475462085274
35:12.067,0.02,0.01,0.03,0.01,-0.04,-0.61,0.06,0.01,172.848770907967,148.771197921801,148.702198299757,159.760682159136,159.760682159136
35:12.080,-0.01,0,0.08,0,0.02,0.18,-0.14,-0.01,173.1253108573,148.792224747819,148.707544014114,159.816983595874,159.816983595874
35:12.093,-0.01,0,0.08,0,0.02,0.18,-0.14,-0.01,173.401850806651,148.813251573837,148.712889728471,159.873285032615,159.873285032615
35:12.102,0,0,0.03,0,-0.08,-0.52,-0.01,-0.03,173.678390755995,148.834278399854,148.718235442828,159.929586469354,159.929586469354
35:12.112,0.02,0,-0.04,0,0.03,0.31,-0.02,0.01,173.954930705343,148.855305225872,148.723581157186,159.985887906096,173.130054925531
35:12.154,-0.01,0,0,-0.03,0.02,0.25,-0.05,0.02,174.008102969083,149.081082316436,148.891181792598,160.101727703053,160.101727703053
35:12.165,-0.01,0,0,-0.03,0.02,0.25,-0.05,0.02,174.061275232822,149.306859407006,149.058782428016,160.217567500011,160.217567500011
35:12.175,-0.04,-0.02,-0.04,-0.01,-0.01,-0.13,-0.42,-0.06,174.11444749656,149.532636497563,149.226383063429,160.333407296963,160.333407296963
35:12.186,-0.04,-0.02,-0.04,-0.01,-0.01,-0.13,-0.42,-0.06,174.167619760299,149.758413588122,149.393983698839,160.449247093919,160.449247093919
35:12.195,0,0,0,-0.02,-0.11,-0.45,0,0,174.220792024039,149.984190678686,149.561584334257,160.56508689088,160.56508689088
35:12.205,0,0,0,-0.02,-0.11,-0.45,0,0,174.385445812008,150.140659587692,149.790000335266,160.743710693934,160.743710693934
35:12.215,-0.01,-0.01,-0.06,0,0.02,0.33,-0.02,0,174.550099599972,150.297128496695,150.018416336272,160.922334496987,160.922334496987
35:12.226,0,-0.03,0.02,-0.04,-0.03,0.18,-0.06,-0.02,174.714753387943,150.453597405707,150.246832337289,161.100958300049,161.100958300049
35:12.271,0,-0.03,0.02,-0.04,-0.03,0.18,-0.06,-0.02,174.873440087278,150.334042173581,150.024082071675,160.89725278713,160.89725278713
35:12.281,0,-0.01,-0.03,0.01,0.01,-0.17,0.07,0.02,175.032126786613,150.214486941455,149.801331806062,160.693547274215,160.693547274215
35:12.291,-0.02,-0.04,-0.07,-0.03,-0.03,0.12,-0.28,0,175.190813485951,150.094931709329,149.578581540438,160.489841761293,160.489841761293
35:12.302,0,-0.01,-0.02,0.02,0.02,0.15,0.14,0.01,175.253576928326,150.205380713643,149.667836863587,160.373900407656,160.373900407656
35:12.314,0,0,0,0.01,0.01,0.03,0.16,0,175.3163403707,150.315829717958,149.757092186737,160.257959054017,160.257959054017
35:12.325,0,0,0,0.01,0.01,0.03,0.16,0,175.379103813075,150.426278722272,149.846347509888,160.142017700378,160.142017700378
35:12.334,-0.06,-0.03,-0.02,-0.05,-0.06,0,-0.3,-0.09,175.441867255449,150.536727726586,149.935602833038,160.02607634674,160.02607634674
35:12.394,0.01,0,-0.03,-0.03,-0.02,-0.07,0.14,-0.01,175.433519044384,150.668196267483,150.054897685459,159.94616210546,159.94616210546
35:12.406,0.01,0,-0.03,-0.03,-0.02,-0.07,0.14,-0.01,175.425170833318,150.799664808383,150.174192537881,159.866247864178,159.866247864178
35:12.418,0,0,0.03,-0.03,-0.04,0.07,-0.07,-0.03,175.416822622253,150.931133349282,150.293487390303,159.786333622897,159.786333622897
35:12.432,-0.01,-0.04,-0.01,-0.01,-0.01,-0.48,0.08,-0.02,175.408474411187,151.062601890178,150.412782242722,159.706419381617,159.706419381617
35:12.442,-0.01,-0.04,-0.01,-0.01,-0.01,-0.48,0.08,-0.02,175.67170321003,151.1386698031,150.553632556439,159.863817902791,159.863817902791
35:12.486,0.01,0,0,0.01,0.04,0.28,0.1,0.02,175.934932008875,151.214737716023,150.694482870156,160.021216423967,160.021216423967
35:12.497,0.01,0,0,0.01,0.04,0.28,0.1,0.02,175.985399724368,151.18766565379,150.530456883556,159.963857047511,159.963857047511
35:12.507,0,-0.03,-0.09,0,-0.04,-0.58,-0.01,0.05,176.035867439861,151.160593591558,150.366430896956,159.906497671052,159.906497671052
35:12.519,0,0.01,0.04,-0.01,-0.02,-0.09,-0.28,-0.07,176.086335155356,151.133521529326,150.202404910357,159.849138294596,159.849138294596
35:12.531,0,-0.02,0.02,0,-0.04,-0.68,-0.25,0.01,176.13680287085,151.106449467094,150.038378923757,159.791778918139,159.791778918139
35:12.545,0,0,-0.01,0.03,-0.02,0.34,-0.14,-0.06,176.187270586344,151.079377404862,149.87435293716,159.734419541683,172.603615502513
35:12.589,-0.03,-0.01,-0.01,-0.05,-0.09,-0.42,-0.39,0,176.216671892138,151.342257250417,150.129398090423,159.873320231916,159.873320231916
35:12.601,0,0.04,0.22,0,-0.02,-0.06,0.01,-0.01,176.246073197933,151.605137095983,150.384443243689,160.012220922152,160.012220922152
35:12.612,-0.01,-0.02,-0.09,-0.04,-0.03,-0.08,0,-0.01,176.275474503726,151.868016941531,150.639488396948,160.151121612387,160.151121612387
35:12.624,-0.01,-0.02,-0.09,-0.04,-0.03,-0.08,0,-0.01,176.304875809519,152.130896787086,150.894533550214,160.290022302623,160.290022302623
35:12.634,0,0,0.04,0,0,0,0.08,0.04,176.112623265322,152.116989281909,150.868221136787,160.281913866937,160.281913866937
35:12.644,0,0,0.04,0,0,0,0.08,0.04,175.920370721124,152.103081776733,150.84190872336,160.273805431251,160.273805431251
35:12.654,-0.03,-0.03,-0.08,-0.01,0.01,0.4,0.01,-0.01,175.728118176918,152.089174271555,150.815596309932,160.265696995565,160.265696995565
35:12.702,0.01,0.01,0.02,-0.03,-0.01,-0.04,-0.05,0,175.561500349966,151.959718187107,150.942135221456,160.435820000963,160.435820000963
35:12.716,-0.02,0,-0.02,0,-0.04,0.02,-0.16,-0.06,175.394882523018,151.83026210266,151.068674132976,160.60594300636,160.60594300636
35:12.728,-0.02,0,-0.02,0,-0.04,0.02,-0.16,-0.06,175.446395416724,151.776006112129,151.014521470517,160.555659010289,160.555659010289
35:12.738,0.04,0.02,0.17,0.03,0.1,0.09,1.04,0.1,175.497908310432,151.7217501216,150.960368808057,160.505375014216,160.505375014216
35:12.752,0.04,0.02,0.17,0.03,0.1,0.09,1.04,0.1,175.549421204137,151.66749413107,150.906216145599,160.455091018146,160.455091018146
35:12.763,0,0,-0.06,0,0.07,0.18,0.03,0.04,175.600934097843,151.613238140538,150.852063483137,160.404807022074,160.404807022074
35:12.805,0,0,-0.02,0.03,0,0,-0.24,-0.04,175.535175301549,151.444519218363,150.811281709388,160.295638050245,160.295638050245
35:12.815,-0.02,-0.06,-0.07,-0.05,0,-0.04,-0.07,0,175.469416505256,151.275800296189,150.770499935639,160.186469078418,160.186469078418
35:12.825,-0.02,-0.06,-0.07,-0.05,0,-0.04,-0.07,0,175.474135265268,151.27731253677,150.797797292477,160.22075304663,160.22075304663
35:12.835,-0.02,-0.03,-0.08,-0.04,-0.08,-0.23,-0.5,-0.16,175.47885402528,151.278824777352,150.825094649316,160.255037014843,160.255037014843
35:12.845,-0.02,-0.03,-0.08,-0.04,-0.08,-0.23,-0.5,-0.16,175.483572785292,151.280337017933,150.852392006154,160.289320983054,160.289320983054
35:12.857,0.01,0.04,0.08,0.02,0.01,0.1,0.13,0.05,175.488291545304,151.281849258514,150.879689362992,160.323604951266,160.323604951266
35:12.868,0.01,0.04,0.08,0.02,0.01,0.1,0.13,0.05,175.493010305316,151.283361499096,150.906986719831,160.357888919479,173.292127046312
35:12.914,-0.01,-0.04,-0.09,-0.02,-0.05,-0.53,0.02,0,175.412548985034,151.111422816317,150.751907323069,160.178811140657,160.178811140657
35:12.925,-0.01,-0.04,-0.09,-0.02,-0.05,-0.53,0.02,0,175.332087664754,150.939484133534,150.596827926307,159.99973336183,159.99973336183
35:12.938,-0.01,-0.04,-0.09,-0.02,-0.05,-0.53,0.02,0,175.251626344474,150.767545450755,150.441748529545,159.820655583007,159.820655583007
35:12.951,0,-0.02,0,-0.01,0.03,0.33,-0.01,-0.02,175.17116502419,150.595606767969,150.286669132784,159.641577804181,159.641577804181
35:12.961,0,-0.01,-0.01,-0.01,0.04,0.25,-0.03,0,174.982002853641,150.75984524906,150.53145159399,159.982767909838,159.982767909838
35:12.971,0.02,-0.03,0.02,-0.01,-0.06,-0.22,0.1,0.02,174.792840683098,150.924083730151,150.776234055193,160.323958015491,160.323958015491
35:12.984,0,-0.06,-0.11,-0.03,-0.02,-0.18,-0.05,0,174.603678512551,151.088322211242,151.021016516395,160.665148121145,160.665148121145
35:13.030,0.01,0,-0.02,0.02,0.08,0.16,0.19,-0.03,174.419178587215,151.007062191694,150.95787833445,160.526781474848,160.526781474848
35:13.045,0,0,-0.06,-0.01,0.01,0.29,0.04,-0.01,174.234678661882,150.925802172147,150.894740152504,160.388414828552,160.388414828552
35:13.056,0,0.06,0.12,-0.01,-0.06,-0.02,-0.18,0,174.178044212082,150.934864411199,150.883291087523,160.385657999649,160.385657999649
35:13.070,0,0.06,0.12,-0.01,-0.06,-0.02,-0.18,0,174.121409762281,150.943926650251,150.871842022542,160.382901170746,160.382901170746
35:13.083,-0.01,-0.04,-0.08,-0.04,-0.08,-0.33,-0.06,-0.01,174.064775312481,150.952988889303,150.860392957562,160.380144341843,160.380144341843
35:13.092,-0.01,0,0.03,0.02,0,-0.04,0.08,0.02,174.008140862679,150.962051128355,150.848943892581,160.37738751294,160.37738751294
35:13.142,0.02,-0.07,-0.12,0.05,0.07,-0.03,0.05,0.07,173.951506412879,150.971113367407,150.837494827601,160.374630684037,173.922168704582
35:13.153,-0.02,0.01,0,-0.04,-0.04,0.1,0.03,-0.06,173.848279937947,150.60271181869,150.459579405506,160.061719147707,160.061719147707
35:13.164,0,0,0,0.02,0.07,0.38,0.01,-0.04,173.745053463012,150.234310269974,150.081663983408,159.748807611373,159.748807611373
35:13.174,-0.03,0,-0.15,-0.07,-0.1,0.13,0.03,-0.01,173.641826988081,149.865908721265,149.703748561311,159.435896075047,159.435896075047
35:13.186,-0.03,0,-0.15,-0.07,-0.1,0.13,0.03,-0.01,173.53860051315,149.497507172557,149.325833139221,159.122984538713,159.122984538713
35:13.195,0,0.04,0.17,0,0,-0.36,-0.11,-0.03,173.58594694885,149.776767864274,149.537790069413,159.04750427701,159.04750427701
35:13.239,-0.01,-0.02,-0.12,-0.04,-0.06,-0.23,0.04,-0.01,173.63329338455,150.056028555995,149.749746999605,158.972024015307,158.972024015307
35:13.251,-0.01,-0.02,-0.12,-0.04,-0.06,-0.23,0.04,-0.01,173.630314152344,149.969289789103,149.72589565883,158.963312217108,158.963312217108
35:13.262,-0.03,-0.01,-0.04,-0.03,0,0,-0.1,0,173.627334920139,149.882551022209,149.702044318055,158.954600418909,158.954600418909
35:13.277,0,0,-0.06,0,0.04,0.15,0.06,0.01,173.624355687934,149.795812255317,149.67819297728,158.94588862071,158.94588862071
35:13.288,0,0,-0.06,0,0.04,0.15,0.06,0.01,173.48283756739,149.591056106208,149.604476345155,158.967527601948,158.967527601948
35:13.299,0,0,-0.06,0,0.04,0.15,0.06,0.01,173.341319446843,149.386299957096,149.53075971303,158.989166583186,158.989166583186
35:13.349,0,-0.03,0.02,0.03,0.08,0.25,0.02,0,173.381226769148,149.498089378036,149.507581651115,158.978884863264,158.978884863264
35:13.360,-0.01,0.01,-0.08,0,0.02,0.16,-0.38,0,173.421134091454,149.609878798979,149.484403589199,158.968603143341,158.968603143341
35:13.371,-0.01,0.01,-0.08,0,0.02,0.16,-0.38,0,173.461041413759,149.721668219918,149.461225527284,158.958321423419,158.958321423419
35:13.381,0.02,0.05,0.17,0.04,0.06,0.14,0.03,-0.02,173.500948736064,149.83345764086,149.438047465368,158.948039703496,158.948039703496
35:13.390,0,0.2,0.62,-0.01,-0.04,-0.1,-0.43,-0.06,173.538522252557,149.719146677486,149.26288571726,158.795847394696,158.795847394696
35:13.400,0.01,0,0,0,0.03,0.03,0.2,0.04,173.576095769052,149.604835714112,149.087723969154,158.643655085896,158.643655085896
35:13.410,0.01,0,0,0,0.03,0.03,0.2,0.04,173.613669285545,149.490524750738,148.912562221049,158.491462777092,158.491462777092
35:13.421,0.01,0.04,0.24,0.04,0.04,-0.03,0.14,0.01,173.65124280204,149.37621378736,148.737400472935,158.339270468288,158.339270468288
35:13.461,0,-0.02,-0.03,-0.01,-0.06,-0.52,0.38,0,173.709924357252,149.460626885136,148.756127408719,158.370811789623,158.370811789623
35:13.473,0.02,0.02,-0.01,0.02,0.02,0.01,-0.05,0.04,173.768605912464,149.545039982911,148.774854344502,158.402353110957,158.402353110957
35:13.483,-0.02,0.01,0.03,-0.02,-0.01,0.21,0.35,-0.02,173.827287467675,149.629453080686,148.793581280285,158.43389443229,158.43389443229
35:13.493,-0.02,0.01,0.03,-0.02,-0.01,0.21,0.35,-0.02,173.678681330872,149.502140146233,148.789655130601,158.49931647009,158.49931647009
35:13.505,0.03,0.01,0.02,0.02,0.06,0.43,-0.15,0.04,173.530075194063,149.374827211781,148.785728980918,158.56473850789,158.56473850789
35:13.515,0,-0.07,-0.24,-0.05,-0.05,0.02,-0.22,-0.05,173.381469057251,149.247514277329,148.781802831234,158.630160545688,158.630160545688
35:13.527,0,-0.07,-0.24,-0.05,-0.05,0.02,-0.22,-0.05,173.232862920438,149.120201342874,148.77787668155,158.69558258349,158.69558258349
35:13.567,0.02,0.01,0.12,0.04,0.09,0.26,0.11,0.04,173.379256238857,149.057695893212,148.551008871076,158.514832656994,158.514832656994
35:13.576,0.07,-0.07,0.07,-0.01,-0.14,-0.36,-0.38,-0.15,173.525649557274,148.995190443552,148.324141060606,158.3340827305,158.3340827305
35:13.586,0,0.01,0.15,0,0,-0.04,-0.15,-0.02,173.513509056465,148.996903829439,148.262714162809,158.232320063997,158.232320063997
35:13.597,-0.02,-0.01,-0.14,-0.04,-0.11,-0.37,0.08,-0.08,173.501368555656,148.998617215326,148.20128726501,158.13055739749,158.13055739749
35:13.607,-0.02,-0.01,-0.14,-0.04,-0.11,-0.37,0.08,-0.08,173.489228054848,149.000330601214,148.139860367211,158.028794730988,158.028794730988
35:13.620,-0.05,-0.04,-0.03,0,-0.08,-0.21,0.05,0.02,173.47708755404,149.002043987101,148.078433469414,157.927032064486,157.927032064486
35:13.630,-0.06,0.04,0.02,0.02,0.02,0.04,-0.18,-0.02,173.464947053231,149.003757372988,148.017006571616,157.825269397981,157.825269397981
35:13.640,0.02,-0.05,-0.04,0.03,0.06,0.4,0.08,0.02,173.452806552423,149.005470758875,147.955579673819,157.72350673148,174.844433321125
35:13.682,-0.01,-0.01,0.01,0,-0.06,-0.37,0.29,-0.01,173.476455953371,149.207063961992,148.134331688208,157.88259312023,157.88259312023
35:13.697,0.01,0.04,-0.03,-0.02,-0.06,-0.2,0.11,0,173.500105354318,149.40865716511,148.3130837026,158.04167950898,158.04167950898
35:13.714,0,0,-0.08,-0.02,-0.01,-0.26,0.01,0.07,173.523754755265,149.61025036823,148.491835716992,158.200765897731,158.200765897731
35:13.726,-0.02,-0.02,0.05,0.01,0.01,0.12,0.25,0,173.688396078745,149.661370314588,148.536121216656,158.260527410725,158.260527410725
35:13.738,-0.02,-0.03,0,-0.03,-0.05,-0.25,-0.13,-0.01,173.853037402227,149.712490260945,148.580406716321,158.320288923719,158.320288923719
35:13.748,-0.01,0,-0.11,-0.02,-0.02,0.19,-0.12,0,174.017678725704,149.763610207301,148.624692215983,158.380050436713,158.380050436713
35:13.792,-0.04,0,-0.03,-0.02,0.01,-0.22,-0.06,-0.03,173.986148496438,149.824201738085,148.688468804253,158.429683831123,158.429683831123
35:13.807,0,-0.04,0,-0.02,-0.06,-0.14,0.2,0.04,173.954618267171,149.88479326887,148.752245392525,158.479317225534,158.479317225534
35:13.820,0.01,0,0.02,-0.02,0,-0.05,-0.03,0,173.923088037905,149.945384799653,148.816021980794,158.528950619942,158.528950619942
35:13.830,0.01,0,0.02,-0.02,0,-0.05,-0.03,0,173.891557808639,150.005976330437,148.879798569063,158.578584014351,158.578584014351
35:13.841,0.03,0,-0.03,0.03,0.05,-0.09,-0.04,0.04,173.616181347519,149.929941430169,148.852815495239,158.340878880175,158.340878880175
35:13.852,0,0.01,0.05,0,0,-0.03,-0.32,-0.04,173.3408048864,149.8539065299,148.825832421415,158.103173746002,158.103173746002
35:13.894,0,-0.1,-0.17,-0.05,0,0.17,0.12,0.03,173.239985038768,149.706221571905,148.571916523979,157.939833223974,157.939833223974
35:13.906,0,0.03,0.07,0,-0.04,-0.29,-0.06,-0.01,173.139165191136,149.558536613917,148.318000626547,157.776492701949,157.776492701949
35:13.916,-0.01,-0.01,-0.02,0,-0.03,-0.08,-0.04,-0.08,173.038345343502,149.410851655921,148.064084729107,157.613152179922,157.613152179922
35:13.927,-0.01,-0.01,-0.07,0,0.04,0.04,-0.3,0,172.934127447834,149.461137682489,148.152894150844,157.820011037584,157.820011037584
35:13.936,-0.01,-0.01,-0.07,0,0.04,0.04,-0.3,0,172.829909552169,149.511423709057,148.241703572581,158.02686989525,158.02686989525
35:13.948,0,0.06,0.13,0.01,0.01,0.21,-0.06,-0.01,172.725691656495,149.561709735625,148.330512994322,158.233728752915,158.233728752915
35:13.961,0,0.03,0.06,0,-0.05,-0.27,0.21,0.01,172.621473760824,149.611995762192,148.419322416059,158.440587610577,158.440587610577
35:14.003,0,-0.08,-0.17,-0.01,0,-0.32,0.08,-0.02,172.909177574416,149.64585458679,148.57329000722,158.552848185424,158.552848185424
35:14.013,0.01,0,0.02,0,0.03,0.12,0.05,0.03,173.196881388012,149.679713411389,148.727257598381,158.665108760271,158.665108760271
35:14.024,0.01,-0.03,0,0.02,0.06,0.21,0.11,0,173.228555845781,149.678310160695,148.753232842308,158.660540680511,158.660540680511
35:14.034,0.01,-0.03,0,0.02,0.06,0.21,0.11,0,173.26023030355,149.676906910001,148.779208086235,158.655972600751,158.655972600751
35:14.047,0,0.01,0.03,-0.01,-0.01,0.14,-0.06,0,173.291904761319,149.675503659307,148.805183330162,158.651404520991,158.651404520991
35:14.060,0,0.03,0.11,0,0.01,-0.01,-0.13,0,173.323579219086,149.674100408613,148.831158574089,158.646836441232,158.646836441232
35:14.071,0,0.02,0.08,-0.01,-0.08,-0.16,0.48,-0.01,173.355253676854,149.672697157919,148.857133818017,158.642268361472,174.951848038604
35:14.128,0,0.04,0,0,0.02,0.24,0.06,0,173.503767782415,149.76496103072,148.889776300363,158.72354842746,158.72354842746
35:14.140,0,0.01,0,0.02,-0.01,0,-0.14,-0.03,173.652281887975,149.857224903519,148.922418782709,158.804828493447,158.804828493447
35:14.153,0,0.01,0,0.02,-0.01,0,-0.14,-0.03,173.800795993535,149.949488776321,148.955061265056,158.886108559434,158.886108559434
35:14.165,-0.02,-0.01,-0.03,0.02,0,-0.13,-0.14,-0.03,173.901813665697,149.987389660363,148.978211401086,158.762844542843,158.762844542843
35:14.176,-0.02,-0.02,-0.03,-0.08,-0.09,-0.41,-0.18,-0.05,174.002831337861,150.025290544405,149.001361537117,158.639580526249,158.639580526249
35:14.221,-0.01,-0.03,-0.12,0,0.01,-0.04,0.04,0.01,173.880414093876,150.107158332656,149.115683183281,158.805802464452,158.805802464452
35:14.231,-0.01,-0.03,-0.12,0,0.01,-0.04,0.04,0.01,173.757996849887,150.189026120908,149.230004829442,158.972024402647,158.972024402647
35:14.241,-0.01,0,-0.05,0,0,0.07,0.14,0.02,173.6355796059,150.270893909157,149.344326475606,159.138246340852,159.138246340852
35:14.253,0,0,0.01,-0.01,-0.01,0.01,-0.06,-0.03,173.513162361913,150.35276169741,149.458648121774,159.304468279064,159.304468279064
35:14.263,0,0,0.01,-0.01,-0.01,0.01,-0.06,-0.03,173.390745117928,150.43462948566,149.572969767938,159.470690217269,159.470690217269
35:14.273,0,0.03,0.09,-0.01,-0.04,-0.06,0.21,0.08,173.418118456593,150.561897748641,149.631430633596,159.406932529152,159.406932529152
35:14.284,0,0,-0.03,0.01,0.02,0.18,-0.04,0,173.44549179526,150.689166011622,149.689891499256,159.343174841033,159.343174841033
35:14.329,0,0.02,0.11,-0.01,-0.05,-0.43,-0.29,0,173.527410368196,150.916239719565,149.719836729512,159.384036409205,159.384036409205
35:14.341,0,0,-0.03,0.01,0.04,0.27,0.06,0.01,173.609328941131,151.14331342751,149.749781959768,159.424897977378,159.424897977378
35:14.351,0,0,-0.03,0.01,0.04,0.27,0.06,0.01,173.691247514069,151.370387135452,149.779727190024,159.46575954555,159.46575954555
35:14.360,-0.02,-0.01,-0.03,-0.02,-0.03,-0.14,-0.35,-0.04,173.82968626378,151.380460067663,149.77260149084,159.477770341065,159.477770341065
35:14.371,-0.02,-0.01,-0.03,-0.02,-0.03,-0.14,-0.35,-0.04,173.968125013493,151.390532999873,149.765475791657,159.489781136579,159.489781136579
35:14.382,0,-0.02,-0.04,-0.01,-0.02,0.12,-0.12,0.01,174.106563763205,151.400605932084,149.758350092474,159.501791932094,159.501791932094
35:14.391,0,-0.02,-0.04,-0.01,-0.02,0.12,-0.12,0.01,174.245002512922,151.410678864295,149.75122439329,159.513802727609,159.513802727609
35:14.435,-0.01,-0.03,-0.16,-0.03,-0.02,-0.28,-0.14,-0.03,174.240855053878,151.403799136617,149.773018161781,159.544552842238,159.544552842238
35:14.447,-0.01,0.01,0.07,-0.01,0.06,0.34,-0.13,-0.02,174.236707594834,151.396919408938,149.794811930272,159.575302956868,159.575302956868
35:14.457,0,0.01,0.03,0,0,0.33,0.17,0.01,174.23256013579,151.39003968126,149.816605698763,159.606053071496,159.606053071496
35:14.467,0,0.01,0.03,0,0,0.33,0.17,0.01,174.588383632916,151.471958556765,149.882396527292,159.721571400069,159.721571400069
35:14.478,0.01,-0.02,-0.1,0.01,0.06,0.29,0.22,0.06,174.944207130036,151.553877432269,149.948187355822,159.837089728637,159.837089728637
35:14.490,0,-0.02,-0.05,0.05,0.04,-0.01,-0.03,0,175.300030627157,151.635796307773,150.013978184349,159.952608057209,159.952608057209
35:14.503,0.01,0,-0.05,0,-0.01,-0.09,0.22,0.04,175.655854124278,151.717715183277,150.079769012877,160.068126385779,160.068126385779
35:14.557,0,0,-0.04,0.01,-0.02,-0.22,0,0,176.011677621399,151.79963405878,150.145559841405,160.18364471435,176.902362470658
35:14.573,0.01,0,0.04,-0.01,0.02,0.04,-0.13,-0.03,175.91028358637,151.714943137506,150.09596505132,160.047112491597,160.047112491597
35:14.584,-0.02,-0.01,0,0,0,-0.22,-0.06,0.02,175.808889551341,151.63025221623,150.046370261235,159.910580268843,159.910580268843
35:14.594,-0.02,-0.01,0,0,0,-0.22,-0.06,0.02,175.707495516312,151.545561294955,149.99677547115,159.774048046091,159.774048046091
35:14.604,-0.01,-0.01,0,-0.01,-0.04,-0.09,-0.01,-0.01,175.606101481284,151.460870373681,149.947180681065,159.637515823342,159.637515823342
35:14.649,0,0,0,0,0.04,0.13,0,0.01,175.769892086939,151.50275963321,150.002970469962,159.710057096784,159.710057096784
35:14.657,0,0,0,0,0.04,0.13,0,0.01,175.93368269259,151.544648892738,150.058760258857,159.782598370226,159.782598370226
35:14.671,0,-0.01,-0.07,0,-0.02,0.01,-0.15,-0.05,176.097473298243,151.586538152266,150.114550047752,159.855139643667,159.855139643667
35:14.681,-0.01,0.04,0.11,0,-0.04,-0.1,0.06,0.01,176.2612639039,151.628427411796,150.170339836649,159.927680917108,159.927680917108
35:14.691,-0.01,0.04,0.11,0,-0.04,-0.1,0.06,0.01,176.644674346229,151.409246903371,150.153969936415,159.779659649197,159.779659649197
35:14.703,0,-0.04,-0.11,-0.03,-0.03,-0.04,0.12,0,177.028084788559,151.190066394942,150.137600036181,159.631638381285,159.631638381285
35:14.714,0,-0.04,-0.11,-0.03,-0.03,-0.04,0.12,0,177.411495230888,150.970885886516,150.121230135947,159.483617113376,159.483617113376
35:14.755,0,0.01,0,-0.01,-0.01,0.21,0.05,0.03,177.375406252663,150.428810953323,149.825387309058,159.235396450447,159.235396450447
35:14.765,0,-0.02,-0.05,0,0,0.13,0.06,0,177.339317274438,149.886736020126,149.52954448216,158.987175787523,158.987175787523
35:14.775,0,-0.02,-0.05,0,0,0.13,0.06,0,177.303228296212,149.344661086929,149.23370165527,158.738955124591,158.738955124591
35:14.785,0,0,0,0.02,0.04,0.01,0.12,0,177.267139317986,148.802586153732,148.93785882838,158.490734461655,158.490734461655
35:14.795,0,0,0,0.02,0.04,0.01,0.12,0,177.279482324001,148.940255383146,148.878462180315,158.579794900044,158.579794900044
35:14.806,-0.01,0,0.09,0,-0.01,0.04,0,0,177.291825330015,149.07792461256,148.819065532251,158.668855338434,158.668855338434
35:14.820,-0.01,0,0.09,0,-0.01,0.04,0,0,177.304168336029,149.215593841971,148.759668884186,158.75791577682,158.75791577682
35:14.831,-0.01,-0.01,0.03,-0.01,0,-0.06,-0.1,0.02,177.316511342044,149.353263071385,148.700272236119,158.846976215209,158.846976215209
35:14.875,0,-0.01,0,-0.02,-0.01,-0.12,-0.02,0.01,177.328854348058,149.490932300797,148.640875588056,158.936036653597,176.786960086922
35:14.887,-0.02,-0.02,0.1,0.02,0.02,0.21,0,-0.01,177.258031032788,149.333901877015,148.480803758706,158.861817237716,158.861817237716
35:14.898,0,0.02,0.08,0,-0.02,-0.07,0,-0.04,177.187207717519,149.176871453234,148.320731929362,158.787597821834,158.787597821834
35:14.908,-0.01,-0.01,-0.08,0,0,0.13,0.08,0,177.116384402249,149.019841029454,148.160660100013,158.713378405952,158.713378405952
35:14.921,0,0.01,0,0,0,0.05,0.02,-0.01,177.04556108698,148.862810605677,148.000588270666,158.639158990071,158.639158990071
35:14.932,0,0.01,0.01,0.02,-0.03,-0.09,-0.03,0,176.97473777171,148.705780181899,147.840516441318,158.564939574189,158.564939574189
35:14.984,-0.01,0.03,0.04,0,0.01,-0.08,-0.16,-0.02,176.691305768727,148.381913719157,147.667661855066,158.418403709711,158.418403709711
35:14.997,-0.01,0,-0.01,0,0.03,0.39,0.11,0.01,176.40787376574,148.058047256403,147.494807268809,158.271867845226,158.271867845226
35:15.008,0,0.01,0.04,0.01,-0.05,-0.08,0,-0.03,176.124441762753,147.734180793654,147.321952682556,158.125331980747,158.125331980747
35:15.019,-0.01,-0.01,-0.04,-0.02,0.02,0.11,-0.01,-0.04,175.841009759766,147.410314330911,147.149098096303,157.978796116266,157.978796116266
35:15.030,-0.01,-0.01,-0.04,-0.02,0.02,0.11,-0.01,-0.04,174.032203299095,147.503885991249,147.531516501884,157.967509359758,157.967509359758
35:15.041,0,0,0.01,0.02,0.02,-0.12,-0.12,-0.01,172.223396838424,147.597457651587,147.913934907469,157.95622260325,157.95622260325
35:15.083,-0.01,0.01,0.1,0,-0.04,-0.33,0.04,0,170.689771588077,147.491937777942,148.079959418672,158.184385028359,158.184385028359
35:15.094,-0.01,0.01,0.1,0,-0.04,-0.33,0.04,0,169.156146337744,147.386417904298,148.245983929875,158.412547453467,158.412547453467
35:15.106,0.01,-0.01,-0.08,0.04,0.04,0.21,-0.04,0,167.62252108744,147.280898030653,148.412008441079,158.640709878578,158.640709878578
35:15.117,-0.01,-0.01,-0.15,-0.02,-0.04,-0.03,-0.08,0,166.088895837049,147.175378157006,148.578032952286,158.868872303698,158.868872303698
35:15.127,-0.01,-0.01,-0.15,-0.02,-0.04,-0.03,-0.08,0,164.923496440548,147.005311661564,148.803984276903,158.873974960015,158.873974960015
35:15.137,-0.01,-0.01,-0.03,0,-0.01,0.02,0.06,0.01,163.758097044061,146.835245166119,149.029935601517,158.879077616332,158.879077616332
35:15.148,-0.02,-0.04,-0.07,-0.04,-0.04,0.23,-0.03,-0.05,162.59269764756,146.665178670675,149.255886926134,158.884180272649,158.884180272649
35:15.191,0,-0.01,-0.03,0,-0.01,0.21,0.04,0.02,162.213702589484,146.737106706235,149.354820803131,159.102613771873,159.102613771873
35:15.202,0,-0.03,-0.03,-0.04,0.05,0.26,0,0.03,161.834707531416,146.809034741793,149.453754680128,159.321047271096,159.321047271096
35:15.215,0,-0.03,-0.03,-0.04,0.05,0.26,0,0.03,161.45571247334,146.880962777352,149.552688557123,159.53948077032,159.53948077032
35:15.225,0,-0.02,-0.08,-0.02,0.01,-0.04,-0.23,-0.02,159.858381443075,147.006190547349,149.844539668575,159.652580232681,159.652580232681
35:15.235,0,-0.02,-0.08,-0.02,0.01,-0.04,-0.23,-0.02,158.261050412839,147.131418317345,150.136390780026,159.765679695041,159.765679695041
35:15.246,0,-0.04,-0.06,-0.04,-0.03,0.01,0.01,0,156.663719382574,147.256646087344,150.428241891477,159.878779157403,159.878779157403
35:15.258,0,-0.04,-0.06,-0.04,-0.03,0.01,0.01,0,155.066388352308,147.381873857342,150.720093002925,159.991878619764,159.991878619764
35:15.267,0,0,0.01,-0.01,-0.02,-0.23,-0.01,0,153.469057322058,147.507101627339,151.011944114372,160.104978082124,160.104978082124
35:15.321,0,0.02,0.04,-0.02,-0.01,0.12,0.02,0.02,151.835144617799,147.400585061174,151.068072108128,160.036272080397,160.036272080397
35:15.333,0,0.02,0.04,-0.02,-0.01,0.12,0.02,0.02,150.201231913525,147.294068495012,151.124200101884,159.967566078671,159.967566078671
35:15.344,0,0,-0.03,-0.01,0.03,0,0.13,0.05,148.567319209193,147.187551928848,151.180328095639,159.898860076943,159.898860076943
35:15.353,0,0,-0.03,-0.01,0.03,0,0.13,0.05,146.933406504861,147.081035362684,151.236456089395,159.830154075215,159.830154075215
35:15.364,0,-0.03,-0.04,0.03,0.02,-0.22,-0.04,0,145.299493800587,146.974518796524,151.29258408315,159.761448073489,159.761448073489
35:15.374,0,0.01,-0.03,0,-0.05,-0.11,0.02,0.02,142.95180704954,147.526590155947,151.475768812932,160.055598638352,160.055598638352
35:15.415,-0.01,0,-0.01,0,-0.02,-0.2,-0.16,-0.01,140.604120298463,148.078661515377,151.658953542712,160.349749203211,160.349749203211
35:15.425,0,-0.02,-0.06,-0.02,-0.02,-0.08,0,-0.02,138.256433547416,148.630732874793,151.842138272488,160.643899768074,160.643899768074
35:15.435,0,-0.02,-0.06,-0.02,-0.02,-0.08,0,-0.02,136.941364938946,148.419543614313,151.58422773124,160.290156813426,160.290156813426
35:15.444,0,-0.02,-0.08,-0.02,0,-0.11,-0.11,-0.02,135.626296330476,148.208354353832,151.326317189989,159.936413858784,159.936413858784
35:15.456,0,-0.02,-0.08,-0.02,0,-0.11,-0.11,-0.02,134.311227722035,147.997165093355,151.068406648745,159.582670904143,159.582670904143
35:15.468,0,-0.02,-0.08,-0.03,-0.04,0.18,0.06,0.01,132.996159113594,147.785975832874,150.810496107508,159.228927949502,159.228927949502
35:15.480,0,-0.01,-0.02,0.02,-0.05,-0.15,0.01,0,132.832656305722,148.148333953952,150.564662226387,159.192178335463,159.192178335463
35:15.520,-0.01,-0.01,-0.12,-0.02,-0.04,-0.11,-0.01,-0.02,132.669153497851,148.510692075026,150.318828345267,159.155428721425,159.155428721425
35:15.529,0,0,0.05,0.05,0.03,-0.2,0,0,132.218110979709,148.548277167996,150.367984228577,159.18071469913,159.18071469913
35:15.540,0,-0.02,-0.06,-0.01,-0.08,0,-0.08,0,131.767068461559,148.585862260967,150.417140111887,159.206000676833,159.206000676833
35:15.551,-0.01,0,0.03,-0.01,-0.03,-0.31,-0.1,-0.04,131.316025943423,148.623447353936,150.466295995197,159.231286654537,159.231286654537
35:15.560,0,0.02,0.02,-0.02,-0.01,0.22,0.09,0.01,130.864983425279,148.661032446906,150.515451878508,159.256572632241,159.256572632241
35:15.572,0,0.02,0.02,-0.02,-0.01,0.22,0.09,0.01,130.413940907129,148.698617539876,150.564607761819,159.281858609946,159.281858609946
35:15.582,-0.01,0,-0.02,0,0.01,-0.02,-0.06,-0.01,127.671395017242,148.153498795684,150.205222618388,159.035967868538,159.035967868538
35:15.592,0,-0.04,-0.13,-0.04,-0.02,0.04,-0.15,-0.03,124.928849127406,147.608380051497,149.845837474957,158.790077127131,158.790077127131
35:15.639,0,0.01,0.01,0.01,0.02,0.33,0.06,0.02,124.066674193455,147.379890399021,149.636317257253,158.440945283728,158.440945283728
35:15.649,-0.01,-0.01,-0.06,-0.01,0.01,-0.04,0,0,123.204499259504,147.151400746545,149.426797039552,158.091813440318,158.091813440318
35:15.660,-0.01,-0.01,-0.06,-0.01,0.01,-0.04,0,0,122.342324325553,146.922911094065,149.217276821844,157.742681596916,157.742681596916
35:15.672,0.02,0.11,0.03,0.02,0.14,-0.04,-0.16,0.01,121.480149391587,146.694421441585,149.00775660414,157.393549753513,157.393549753513
35:15.682,-0.01,0,0,0.01,-0.04,-0.11,0.08,-0.01,120.617974457637,146.465931789109,148.798236386436,157.04441791011,157.04441791011
35:15.693,-0.01,0,0,0.01,-0.04,-0.11,0.08,-0.01,119.755799523684,146.237442136631,148.588716168728,156.695286066711,174.623857764071
35:15.749,-0.01,-0.02,0,0.01,0.03,0.03,-0.02,0,116.293428302743,146.058050402629,148.437818206748,156.537074838025,156.537074838025
35:15.760,0.01,0.01,0.04,0.03,0.06,0.37,0.07,0.01,112.831057081756,145.878658668626,148.286920244765,156.37886360933,156.37886360933
35:15.769,0,0.17,-0.02,-0.06,-0.14,-0.1,0.04,0,109.368685860885,145.699266934625,148.136022282786,156.220652380645,156.220652380645
35:15.780,0,0.17,-0.02,-0.06,-0.14,-0.1,0.04,0,105.906314639957,145.519875200618,147.985124320803,156.06244115196,156.06244115196
35:15.791,0,-0.07,-0.07,0,0,0.25,0.04,-0.01,105.043002081278,145.439517935872,147.994389021016,156.008086951441,156.008086951441
35:15.801,0,-0.05,0.05,0.02,-0.01,0.22,0.04,0.01,104.1796895226,145.359160671127,148.003653721229,155.953732750922,155.953732750922
35:15.811,-0.02,0.03,-0.04,-0.03,0.01,-0.25,-0.07,-0.01,103.316376963907,145.278803406378,148.012918421442,155.8993785504,155.8993785504
35:15.856,-0.01,-0.12,0.13,-0.01,-0.03,0.12,0.01,0,103.483827475811,145.618909345409,148.304981059056,156.047011912673,156.047011912673
35:15.870,0,-0.16,-0.08,0,0.02,-0.06,-0.2,0,103.651277987716,145.959015284439,148.597043696667,156.194645274943,156.194645274943
35:15.881,0,-0.05,-0.01,0,0.11,0,-0.04,-0.04,103.818728499624,146.299121223477,148.889106334296,156.342278637221,156.342278637221
35:15.891,0,-0.05,-0.01,0,0.11,0,-0.04,-0.04,103.986179011528,146.639227162508,149.181168971911,156.489911999495,156.489911999495
35:15.901,0,-0.05,-0.01,0,0.11,0,-0.04,-0.04,102.994819711617,147.242563882057,149.313530725376,157.186246895901,157.186246895901
35:15.911,0,0.06,-0.04,-0.04,-0.05,-0.08,0,0,102.00346041171,147.845900601606,149.44589247884,157.882581792306,157.882581792306
35:15.955,-0.01,0,0,0.02,0,-0.07,0.05,-0.02,101.018507431902,147.584219067969,149.258541000338,157.779950758471,157.779950758471
35:15.964,0.01,0,-0.03,0.03,0,-0.17,0.04,0,100.033554452122,147.322537534339,149.071189521837,157.677319724637,157.677319724637
35:15.977,0.01,0,-0.03,0.03,0,-0.17,0.04,0,99.0486014723283,147.060856000706,148.883838043337,157.574688690804,157.574688690804
35:15.986,0,-0.05,0.04,0.05,0.02,0.1,0.02,-0.02,98.0636484925199,146.799174467065,148.69648656483,157.472057656969,157.472057656969
35:15.996,0,-0.05,0.04,0.05,0.02,0.1,0.02,-0.02,97.6285223205123,147.141877622016,148.973549892587,157.624601400137,157.624601400137
35:16.008,-0.01,-0.06,0.03,-0.02,-0.06,0.37,0.03,0.03,97.1933961485047,147.48458077696,149.250613220349,157.777145143304,157.777145143304
35:16.020,-0.01,-0.06,0.03,-0.02,-0.06,0.37,0.03,0.03,96.7582699764898,147.827283931925,149.52767654811,157.92968888647,157.92968888647
35:16.033,0,-0.25,0.01,-0.02,-0.05,-0.04,-0.02,0,96.3231438044677,148.169987086891,149.804739875879,158.08223262964,158.08223262964
35:16.076,0,-0.25,0.01,-0.02,-0.05,-0.04,-0.02,0,95.8880176324621,148.512690241853,150.081803203637,158.234776372807,173.069011945589
35:16.085,-0.01,-0.28,-0.11,-0.01,0.02,-0.17,-0.11,0,95.871728109013,148.612681911511,150.086901685064,158.454717574004,158.454717574004
35:16.095,-0.01,-0.28,-0.11,-0.01,0.02,-0.17,-0.11,0,95.8554385855641,148.712673581165,150.092000166492,158.674658775206,158.674658775206
35:16.105,-0.02,-0.04,0.1,0.03,0.15,0.29,-0.1,0,95.8391490621148,148.812665250824,150.097098647919,158.894599976411,158.894599976411
35:16.116,-0.02,-0.04,0.1,0.03,0.15,0.29,-0.1,0,95.8228595386656,148.912656920482,150.102197129347,159.114541177609,159.114541177609
35:16.125,-0.02,0.11,0,-0.04,-0.08,0.17,0.09,0.01,95.8065700152169,149.012648590138,150.107295610774,159.334482378807,159.334482378807
35:16.136,0.02,0.5,0.01,-0.05,-0.05,-0.61,0,0,96.0519664651165,148.540362032461,149.919895783543,159.23300988035,159.23300988035
35:16.189,0,0,-0.02,0.03,0.02,-0.08,0,-0.01,96.297362915011,148.068075474792,149.732495956314,159.131537381896,159.131537381896
35:16.199,0,0,-0.02,0.03,0.02,-0.08,0,-0.01,96.6293461726455,148.008721231165,149.690744474184,159.185689011849,159.185689011849
35:16.210,0,0,-0.02,0.03,0.02,-0.08,0,-0.01,96.9613294302762,147.949366987539,149.648992992055,159.2398406418,159.2398406418
35:16.223,-0.01,0.02,0.04,-0.02,-0.08,-0.11,-0.05,-0.01,97.2933126879143,147.890012743912,149.607241509925,159.293992271753,159.293992271753
35:16.235,-0.01,0.02,0.04,-0.02,-0.08,-0.11,-0.05,-0.01,97.6252959455451,147.830658500287,149.565490027796,159.348143901704,159.348143901704
35:16.246,0.01,-0.06,0.02,0,0.09,0.29,0,0,97.9572792031841,147.771304256659,149.523738545666,159.402295531658,174.479993387502
35:16.290,-0.03,-0.18,-0.1,0,0,-0.19,0.01,-0.01,98.7173147409048,147.172931740381,149.523118189374,159.501210551794,159.501210551794
35:16.300,-0.03,-0.18,-0.1,0,0,-0.19,0.01,-0.01,99.4773502786411,146.574559224086,149.522497833082,159.600125571931,159.600125571931
35:16.309,0,-0.08,-0.01,0.03,0,0,-0.08,0,100.237385816363,145.97618670779,149.521877476791,159.699040592066,159.699040592066
35:16.322,0,-0.08,-0.01,0.03,0,0,-0.08,0,100.997421354085,145.37781419151,149.521257120499,159.797955612203,159.797955612203
35:16.332,0,0,0.02,0.06,0.12,0.1,-0.16,0,101.757456891777,144.779441675259,149.520636764207,159.896870632336,159.896870632336
35:16.342,0,-0.19,-0.07,0,-0.08,-0.14,0.05,0,102.161431905126,144.605859623522,149.63039065585,160.057747464731,160.057747464731
35:16.353,-0.01,0.06,-0.01,-0.04,-0.06,-0.31,-0.03,0.02,102.565406918467,144.432277571786,149.740144547492,160.218624297122,160.218624297122
35:16.393,0,0.02,0,0.01,0.14,0,0,0.01,102.457995617986,144.383850366317,149.8180614303,160.189444073142,160.189444073142
35:16.402,-0.02,0.07,0,0,0.12,0.02,0.07,0,102.350584317501,144.335423160848,149.89597831311,160.160263849161,160.160263849161
35:16.411,0.02,0.07,0.07,0,-0.02,0.15,0.07,0.01,102.243173017025,144.28699595538,149.973895195917,160.131083625181,160.131083625181
35:16.423,-0.02,-0.25,-0.1,-0.01,-0.05,0.2,0.05,0.01,102.135761716545,144.238568749912,150.051812078724,160.101903401201,160.101903401201
35:16.435,-0.02,-0.25,-0.1,-0.01,-0.05,0.2,0.05,0.01,102.028350416062,144.190141544443,150.129728961534,160.07272317722,160.07272317722
35:16.445,0,-0.08,0.08,0,0.03,-0.08,-0.03,0,102.528057819058,144.550627632078,150.263906002754,160.296773905546,160.296773905546
35:16.456,0,-0.08,0.08,0,0.03,-0.08,-0.03,0,103.027765222054,144.911113719711,150.398083043976,160.520824633866,160.520824633866
35:16.468,0,0,0.03,0.01,0.17,-0.3,-0.14,0,103.527472625079,145.271599807362,150.532260085198,160.744875362194,160.744875362194
35:16.524,0,-0.4,-0.01,0.05,0,-0.02,-0.02,0.01,104.027180028064,145.632085894996,150.666437126415,160.968926090515,174.926032886918
35:16.536,0,-0.05,-0.05,-0.04,0.01,0.06,0.03,-0.01,103.65282503792,145.287351839565,150.396392307688,160.569864641555,160.569864641555
35:16.546,-0.01,-0.08,-0.03,0,0.03,-0.45,0.01,0.02,103.278470047779,144.942617784131,150.126347488964,160.170803192595,160.170803192595
35:16.558,-0.01,-0.08,-0.03,0,0.03,-0.45,0.01,0.02,102.90411505763,144.597883728697,149.85630267024,159.771741743636,159.771741743636
35:16.568,-0.02,0.28,0.02,0,-0.13,0.16,0,0,102.529760067489,144.253149673263,149.586257851515,159.372680294677,159.372680294677
35:16.608,-0.03,-0.24,-0.03,0,-0.05,-0.07,0.14,0.01,102.545209998052,144.406965094551,149.855009870997,159.758239191433,159.758239191433
35:16.617,-0.03,-0.24,-0.03,0,-0.05,-0.07,0.14,0.01,102.560659928616,144.56078051584,150.123761890485,160.143798088189,160.143798088189
35:16.629,0.02,0.1,0.12,0.1,0.11,0.09,-0.03,0,102.576109859179,144.71459593713,150.39251390997,160.529356984938,160.529356984938
35:16.638,-0.05,-0.36,-0.07,-0.01,0.04,0.07,-0.11,-0.02,102.591559789741,144.868411358417,150.661265929448,160.914915881687,160.914915881687
35:16.648,-0.03,-0.01,-0.02,-0.04,0.27,0.26,-0.03,-0.06,102.676556684617,144.77267109586,150.474820793221,160.877867976413,160.877867976413
35:16.658,-0.03,-0.01,-0.02,-0.04,0.27,0.26,-0.03,-0.06,102.761553579494,144.676930833302,150.288375656994,160.840820071139,160.840820071139
35:16.671,0,-0.23,-0.06,-0.03,-0.05,-0.6,0.06,0.02,102.846550474374,144.581190570743,150.101930520766,160.803772165865,160.803772165865
35:16.684,0.01,-0.01,-0.01,-0.04,-0.13,0.21,-0.01,0,102.931547369251,144.485450308186,149.91548538455,160.766724260591,160.766724260591
35:16.727,-0.07,0,-0.03,-0.04,-0.05,-0.05,0.01,-0.01,103.016544264131,144.389710045627,149.729040248325,160.729676355317,174.362525085388
35:16.738,-0.07,0,-0.03,-0.04,-0.05,-0.05,0.01,-0.01,102.913579233511,144.228402887438,149.681774581266,160.85980837062,160.85980837062
35:16.748,0.03,-0.16,-0.04,-0.05,-0.12,0.24,0,0,102.810614202892,144.067095729253,149.634508914209,160.98994038592,160.98994038592
35:16.758,0.03,-0.16,-0.04,-0.05,-0.12,0.24,0,0,102.707649172273,143.905788571072,149.587243247151,161.12007240122,161.12007240122
35:16.772,0,-0.13,0.01,-0.02,-0.04,0.02,0.14,0,102.604684141652,143.744481412883,149.539977580092,161.250204416523,161.250204416523
35:16.782,0,-0.05,0,-0.01,-0.03,0.01,0.02,-0.02,102.501719111033,143.583174254702,149.492711913033,161.380336431826,161.380336431826
35:16.791,0,-0.05,0,-0.01,-0.03,0.01,0.02,-0.02,102.398754080412,143.421867096511,149.445446245974,161.51046844713,174.856528198659
35:16.839,-0.01,-0.3,-0.01,0,-0.03,-0.03,-0.01,0.02,102.185809236933,143.475717772586,149.755498653154,161.794777192717,161.794777192717
35:16.849,0.02,0.61,0,0,-0.06,0.19,-0.01,-0.01,101.972864393454,143.529568448662,150.065551060339,162.07908593832,162.07908593832
35:16.861,0.02,0.61,0,0,-0.06,0.19,-0.01,-0.01,101.759919549975,143.583419124738,150.375603467524,162.363394683911,162.363394683911
35:16.872,-0.01,-0.13,-0.02,0.01,0.02,-0.09,-0.1,-0.02,101.546974706496,143.637269800814,150.685655874713,162.647703429506,162.647703429506
35:16.882,-0.01,-0.13,-0.02,0.01,0.02,-0.09,-0.1,-0.02,101.334029863016,143.691120476891,150.995708281898,162.932012175093,162.932012175093
35:16.892,-0.02,-0.23,-0.03,-0.03,0.05,-0.07,0,-0.02,101.121085019537,143.744971152967,151.305760689083,163.216320920685,163.216320920685
35:16.954,0,-0.1,-0.02,0,-0.05,0.1,0,-0.01,101.225572015085,144.053116608622,151.601066145442,163.755111101898,163.755111101898
35:16.967,-0.02,-0.05,-0.06,-0.04,-0.1,0.05,0.01,0,101.330059010636,144.361262064274,151.896371601797,164.293901283119,164.293901283119
35:16.978,-0.02,-0.05,-0.06,-0.04,-0.1,0.05,0.01,0,101.434546006187,144.669407519941,152.191677058167,164.83269146434,164.83269146434
35:16.989,-0.02,-0.14,-0.06,0.02,0.16,-0.09,-0.06,-0.02,100.956903455757,144.476195788116,152.297468949082,164.677559103508,164.677559103508
35:16.999,-0.02,-0.14,-0.06,0.02,0.16,-0.09,-0.06,-0.02,100.479260905322,144.28298405629,152.403260839999,164.522426742675,164.522426742675
35:17.052,0.01,0.32,0.01,0.02,-0.05,0.01,-0.05,0.03,100.718677680707,144.257356122177,152.396522206865,164.708606335125,164.708606335125
35:17.066,-0.02,-0.2,0.04,0.01,-0.03,-0.17,0.01,0,100.958094456088,144.231728188066,152.38978357373,164.894785927572,164.894785927572
35:17.079,-0.02,-0.2,0.04,0.01,-0.03,-0.17,0.01,0,101.197511231469,144.206100253954,152.383044940595,165.080965520025,165.080965520025
35:17.092,0,-0.09,-0.03,-0.08,-0.18,0.04,-0.02,0,100.847206707993,144.22618442244,152.329995715909,165.068329631737,165.068329631737
35:17.103,-0.02,0.18,0,-0.02,0.04,0.24,0.01,-0.01,100.496902184517,144.246268590926,152.276946491223,165.05569374345,165.05569374345
35:17.115,-0.04,0.2,0.02,0.05,0.06,-0.04,0.15,0.02,100.146597661049,144.266352759412,152.223897266536,165.043057855163,165.043057855163
35:17.164,0.01,0,-0.02,0.09,0.31,-0.54,-0.1,-0.03,99.883601958938,144.012003806751,152.182737363954,164.938282420332,164.938282420332
35:17.177,0.01,0,-0.02,0.09,0.31,-0.54,-0.1,-0.03,99.620606256829,143.757654854095,152.141577461372,164.833506985503,164.833506985503
35:17.187,-0.01,-0.14,-0.07,-0.05,-0.19,-0.09,-0.02,0,99.4891464074772,143.671974362194,152.263488522154,165.024421028025,165.024421028025
35:17.196,-0.01,-0.14,-0.07,-0.05,-0.19,-0.09,-0.02,0,99.3576865581235,143.586293870292,152.385399582938,165.215335070556,165.215335070556
35:17.206,-0.01,-0.14,-0.07,-0.05,-0.19,-0.09,-0.02,0,99.2262267087717,143.50061337839,152.507310643719,165.406249113075,165.406249113075
35:17.215,0,0.15,0,0,-0.06,0.21,-0.02,-0.01,99.0947668594217,143.414932886488,152.629221704501,165.597163155595,165.597163155595
35:17.227,0.03,0.29,0.12,-0.03,0.04,0.15,-0.01,0,98.9633070100699,143.329252394584,152.751132765285,165.788077198125,165.788077198125
35:17.283,0.01,0.22,0.03,-0.04,-0.12,0.09,0,0,98.8318471607219,143.243571902683,152.873043826068,165.978991240649,175.685774938873
35:17.296,0.01,0.22,0.03,-0.04,-0.12,0.09,0,0,98.8305025042374,143.134557067178,152.540330969419,165.677070944999,165.677070944999
35:17.309,0.01,-0.04,0.01,0,0.05,-0.13,-0.04,-0.01,98.8291578477528,143.02554223167,152.207618112756,165.37515064935,165.37515064935
35:17.318,0.01,-0.04,0.01,0,0.05,-0.13,-0.04,-0.01,98.8278131912682,142.916527396163,151.874905256103,165.073230353701,165.073230353701
35:17.329,-0.03,-0.07,0.01,0.09,0.26,-0.15,-0.02,-0.03,98.8264685347837,142.807512560659,151.542192399465,164.771310058051,164.771310058051
35:17.371,0,-0.14,0,-0.03,0.12,0.06,-0.06,-0.01,98.8438637821901,142.764988652149,151.501480106811,164.674348600842,164.674348600842
35:17.380,-0.01,0.09,0,-0.01,0.06,0.2,0.14,0.01,98.8612590295961,142.722464743641,151.460767814157,164.577387143636,164.577387143636
35:17.390,0,-0.09,-0.03,-0.03,-0.16,-0.3,-0.02,-0.03,98.8786542770022,142.679940835131,151.420055521503,164.480425686428,164.480425686428
35:17.399,0,-0.09,-0.03,-0.03,-0.16,-0.3,-0.02,-0.03,98.8960495244087,142.63741692662,151.379343228848,164.383464229219,164.383464229219
35:17.408,-0.03,-0.35,-0.05,-0.01,-0.04,0.03,-0.02,-0.02,98.6702626564729,142.499859655287,151.315236503864,164.282042294089,164.282042294089
35:17.417,-0.03,-0.35,-0.05,-0.01,-0.04,0.03,-0.02,-0.02,98.4444757885358,142.362302383957,151.251129778881,164.180620358962,164.180620358962
35:17.428,-0.04,-0.07,0,-0.1,-0.14,0.23,-0.08,0,98.2186889205987,142.224745112624,151.187023053897,164.079198423835,164.079198423835
35:17.439,-0.01,-0.37,-0.03,0,-0.05,-0.56,0.03,-0.01,97.9929020526652,142.087187841295,151.122916328914,163.977776488708,163.977776488708
35:17.448,0.01,-0.07,0,-0.03,-0.05,-0.01,0.12,0.01,97.767115184728,141.949630569961,151.058809603928,163.876354553577,163.876354553577
35:17.490,0.01,0.37,-0.03,0,0.1,0.61,0,0.01,97.975248411316,142.324773013443,151.658935962267,164.455213972462,164.455213972462
35:17.501,-0.03,-0.06,0.01,0.09,0.13,-0.07,0.02,0,98.1833816379076,142.699915456924,152.259062320605,165.034073391362,165.034073391362
35:17.511,0.02,0,0.04,0.02,0,0.07,0,0,97.9417646876536,142.625262498279,152.333409418199,165.128574400107,165.128574400107
35:17.522,0.02,0,0.04,0.02,0,0.07,0,0,97.7001477373997,142.550609539632,152.407756515795,165.223075408852,165.223075408852
35:17.536,-0.06,-0.18,-0.06,0.01,-0.04,0.03,-0.07,-0.03,97.4585307871457,142.475956580987,152.482103613389,165.317576417596,165.317576417596
35:17.546,0,0.57,0.08,0,0.1,-0.16,0,-0.01,97.2169138368845,142.40130362234,152.556450710987,165.412077426343,165.412077426343
35:17.555,0,-0.19,-0.05,-0.07,-0.15,0.17,0.05,0,96.9752968866315,142.326650663694,152.630797808579,165.506578435086,174.519161704953
35:17.608,-0.04,-0.1,-0.03,-0.01,-0.04,0.12,0.01,0,97.3562917416712,142.442376591674,153.088070064998,165.837422623259,165.837422623259
35:17.626,-0.04,-0.1,-0.03,-0.01,-0.04,0.12,0.01,0,97.7372865967081,142.558102519653,153.545342321413,166.16826681143,166.16826681143
35:17.639,0.01,0,-0.09,0,-0.01,-0.33,-0.26,-0.01,97.5630924173911,142.513253834086,153.437463104689,165.722377207065,165.722377207065
35:17.650,-0.01,-0.08,-0.01,-0.01,0,-0.14,-0.09,-0.02,97.3888982380813,142.468405148518,153.329583887964,165.276487602699,165.276487602699
35:17.663,0.04,0.16,0.05,0,-0.07,-0.58,0.19,0.01,97.2147040587624,142.423556462951,153.221704671236,164.83059799832,164.83059799832
35:17.708,-0.01,-0.31,-0.02,0.04,0.06,0.27,-0.16,0,97.2555101413818,142.520729921889,153.257112223745,164.895536201972,164.895536201972
35:17.719,-0.01,-0.31,-0.02,0.04,0.06,0.27,-0.16,0,97.2963162240012,142.617903380828,153.292519776255,164.960474405625,164.960474405625
35:17.730,-0.03,0.16,-0.02,-0.03,0,0.03,-0.07,0,97.3371223066215,142.715076839766,153.327927328765,165.025412609279,165.025412609279
35:17.740,-0.03,0.16,-0.02,-0.03,0,0.03,-0.07,0,97.3779283892427,142.812250298708,153.363334881276,165.090350812935,165.090350812935
35:17.750,-0.03,0.16,-0.02,-0.03,0,0.03,-0.07,0,97.4446211394488,142.757632842449,153.509961315183,165.299992129909,165.299992129909
35:17.759,0,0.16,0.05,-0.05,-0.29,-0.11,0.19,0,97.5113138896531,142.703015386192,153.656587749087,165.509633446884,165.509633446884
35:17.771,0.03,-0.08,0,0,0,-0.12,0,0,97.5780066398593,142.648397929932,153.803214182995,165.719274763862,165.719274763862
35:17.811,0,0.02,-0.03,0.05,0.27,0.23,0.18,0,97.3161086646396,142.56041417662,153.784111783369,165.710960957897,165.710960957897
35:17.821,0,0.02,-0.03,0.05,0.27,0.23,0.18,0,97.0542106894209,142.47243042331,153.765009383742,165.702647151933,165.702647151933
35:17.831,-0.07,-0.08,-0.05,0.05,0.02,-0.24,-0.13,0,96.792312714213,142.384446669999,153.745906984116,165.694333345969,165.694333345969
35:17.844,-0.07,-0.08,-0.05,0.05,0.02,-0.24,-0.13,0,96.5304147389979,142.296462916687,153.726804584489,165.686019540004,165.686019540004
35:17.854,-0.02,-0.32,-0.02,-0.04,0.03,0.42,-0.03,-0.01,96.2685167637792,142.208479163373,153.707702184862,165.677705734039,165.677705734039
35:17.864,-0.02,-0.32,-0.02,-0.04,0.03,0.42,-0.03,-0.01,96.6222796024995,142.477946505165,153.725453232037,165.786666559688,165.786666559688
35:17.875,0,0.04,-0.01,-0.04,-0.09,0.1,-0.02,0,96.9760424412161,142.747413846952,153.743204279212,165.895627385336,165.895627385336
35:17.921,-0.02,-0.25,0,0,0.33,0.12,-0.13,0.01,97.087986294111,142.865463998263,153.836687194625,165.944583702313,165.944583702313
35:17.936,0,0.34,0.07,-0.06,-0.27,-0.58,0.04,-0.05,97.1999301470078,142.983514149577,153.930170110041,165.993540019291,165.993540019291
35:17.951,-0.01,0.04,0.02,0.02,-0.18,0.01,-0.05,0,97.3118739999009,143.101564300887,154.023653025453,166.042496336268,166.042496336268
35:17.965,-0.01,0.04,0.02,0.02,-0.18,0.01,-0.05,0,97.2948670565158,143.080936452451,154.165216408985,166.139229932659,166.139229932659
35:17.975,0.01,-0.29,-0.03,0,0,0.14,0.14,0,97.2778601131308,143.060308604015,154.306779792518,166.235963529052,166.235963529052
35:17.987,-0.03,-0.05,-0.08,0,0.02,0.02,0.11,0.01,97.2608531697456,143.039680755579,154.448343176053,166.332697125446,166.332697125446
35:18.035,0,-0.04,0.01,-0.01,-0.02,-0.26,-0.1,-0.01,97.5088762976811,143.061267920781,154.493761577084,166.404185915891,166.404185915891
35:18.047,0,-0.04,0.01,-0.01,-0.02,-0.26,-0.1,-0.01,97.7568994256217,143.082855085983,154.539179978115,166.475674706335,166.475674706335
35:18.060,0.01,0.06,0.03,0.05,0.36,0.73,0.06,0,98.0049225535549,143.104442251185,154.584598379146,166.54716349678,166.54716349678
35:18.069,0,-0.13,0.03,0,0.09,0.28,0.02,0,98.2529456814955,143.126029416388,154.630016780179,166.618652287225,166.618652287225
35:18.079,0,-0.13,0.03,0,0.09,0.28,0.02,0,98.1995034442607,142.956028415669,154.462693549949,166.635370735766,166.635370735766
35:18.089,-0.02,0.01,-0.1,-0.03,-0.2,-0.55,-0.03,-0.03,98.1460612070268,142.786027414953,154.29537031972,166.652089184307,166.652089184307
35:18.102,-0.02,-0.29,-0.08,0,0.09,0.24,0.03,0.04,98.092618969793,142.616026414235,154.128047089489,166.668807632849,166.668807632849
35:18.145,-0.07,-0.31,-0.04,-0.05,-0.31,-0.11,0,-0.01,97.8809202433949,142.417755788752,153.97820223801,166.432204579105,166.432204579105
35:18.157,0.01,-0.03,0.02,0.03,0.06,0,-0.03,0,97.6692215169969,142.21948516327,153.82835738653,166.195601525353,166.195601525353
35:18.165,0.01,-0.03,0.02,0.03,0.06,0,-0.03,0,97.4575227905952,142.021214537792,153.678512535047,165.958998471604,165.958998471604
35:18.175,-0.02,0.05,0.01,0,-0.18,0.07,-0.05,0,97.3906492572696,142.243093155434,153.724563865404,166.019814052711,166.019814052711
35:18.186,0.01,-0.11,-0.01,-0.03,0,-0.22,-0.03,0,97.323775723944,142.464971773072,153.770615195761,166.08062963382,166.08062963382
35:18.195,0.01,-0.11,-0.01,-0.03,0,-0.22,-0.03,0,97.2569021906183,142.68685039071,153.816666526117,166.141445214924,166.141445214924
35:18.207,-0.02,-0.06,0.01,0.05,0.12,0.18,0.19,-0.01,97.1900286572909,142.908729008359,153.862717856474,166.202260796032,166.202260796032
35:18.246,0.02,0.16,-0.06,-0.06,-0.12,-0.11,0,0.01,97.1473394810364,142.963301098324,153.887745691091,166.053592699234,166.053592699234
35:18.256,0.01,0.13,-0.01,0,-0.05,-0.36,0.01,-0.02,97.1046503047814,143.017873188289,153.912773525709,165.904924602437,165.904924602437
35:18.266,-0.01,-0.05,0,-0.02,-0.15,-0.52,-0.08,0.01,97.0394018152019,142.917008168355,153.861439175918,166.020381134718,166.020381134718
35:18.275,-0.01,-0.05,0,-0.02,-0.15,-0.52,-0.08,0.01,96.9741533256238,142.816143148422,153.810104826129,166.135837666992,166.135837666992
35:18.284,-0.01,-0.05,0,-0.02,-0.15,-0.52,-0.08,0.01,96.9089048360456,142.715278128486,153.758770476341,166.251294199268,166.251294199268
35:18.296,-0.01,0.05,0.03,0.01,-0.06,0.14,-0.03,0.02,96.8436563464638,142.614413108548,153.70743612655,166.366750731551,166.366750731551
35:18.305,0.01,0.12,0,0.02,0.16,0.1,-0.06,-0.02,96.7784078568839,142.513548088613,153.656101776761,166.482207263831,166.482207263831
35:18.315,0.01,0.12,0,0.02,0.16,0.1,-0.06,-0.02,96.713159367301,142.412683068677,153.60476742697,166.597663796115,176.778042553479
35:18.357,-0.01,0.23,-0.01,-0.04,0.04,0.33,-0.04,-0.01,96.6204126689609,142.533794518638,153.610712062005,166.491579662041,166.491579662041
35:18.372,-0.05,-0.17,-0.08,0.06,0.06,0.12,0.05,-0.01,96.5276659706196,142.6549059686,153.61665669704,166.385495527968,166.385495527968
35:18.386,0,-0.03,-0.01,0,0.11,0.2,0.02,0.02,96.4349192722802,142.776017418562,153.622601332076,166.279411393896,166.279411393896
35:18.398,0,-0.03,-0.01,0,0.11,0.2,0.02,0.02,96.3421725739445,142.897128868522,153.628545967111,166.173327259827,166.173327259827
35:18.409,-0.11,-0.16,-0.11,-0.12,-0.21,-0.09,0,0,96.3507391041669,142.809823533209,153.761248847686,166.210956070274,166.210956070274
35:18.418,-0.03,0,0,-0.05,0.14,-0.43,-0.23,0,96.3593056343894,142.722518197894,153.893951728262,166.248584880722,166.248584880722
35:18.428,0.02,-0.16,-0.01,0.01,-0.01,-0.01,0.01,0,96.3678721646118,142.635212862582,154.026654608835,166.286213691169,166.286213691169
35:18.470,-0.01,0,0,0.03,-0.01,-0.45,0.05,-0.01,96.7284325921137,142.643944030957,154.066249867063,166.381281802864,166.381281802864
35:18.481,-0.01,0,0,0.03,-0.01,-0.45,0.05,-0.01,97.0889930196063,142.652675199331,154.105845125291,166.476349914556,166.476349914556
35:18.492,0,0.49,0.07,-0.01,-0.1,0.11,-0.09,-0.01,97.4495534470989,142.661406367705,154.145440383519,166.571418026248,166.571418026248
35:18.505,-0.11,-0.35,-0.04,-0.04,-0.05,-0.17,0,0.02,97.810113874606,142.67013753608,154.185035641747,166.666486137943,166.666486137943
35:18.515,0,-0.24,-0.06,-0.05,0.22,-0.07,0.25,0,97.738648652823,142.721549164403,154.181198617391,166.655140145559,166.655140145559
35:18.525,0,-0.24,-0.06,-0.05,0.22,-0.07,0.25,0,97.66718343104,142.772960792724,154.177361593036,166.643794153174,166.643794153174
35:18.535,-0.02,-0.11,-0.01,-0.01,-0.19,0,0,0.06,97.595718209257,142.824372421047,154.17352456868,166.63244816079,166.63244816079
35:18.579,-0.01,-0.05,-0.02,-0.02,0.09,0.1,-0.05,-0.05,97.6563064578531,142.649178585729,154.101242781107,166.423311734405,166.423311734405
35:18.591,-0.01,-0.16,-0.04,-0.03,-0.04,-0.01,-0.05,-0.04,97.7168947064492,142.47398475041,154.028960993535,166.214175308021,166.214175308021
35:18.599,-0.01,-0.16,-0.04,-0.03,-0.04,-0.01,-0.05,-0.04,97.7774829550472,142.298790915083,153.956679205961,166.005038881627,166.005038881627
35:18.609,-0.01,-0.16,-0.04,-0.03,-0.04,-0.01,-0.05,-0.04,97.4841456776339,142.490953613262,154.009145595237,166.114116148196,166.114116148196
35:18.617,-0.16,-0.04,0.04,0.04,-0.01,0.44,0.11,0.01,97.1908084002207,142.68311631144,154.061611984513,166.223193414764,166.223193414764
35:18.630,0,0.05,0,0.01,-0.13,0.05,0.01,0,96.8974711228075,142.875279009619,154.114078373788,166.332270681332,166.332270681332
35:18.644,0.04,0.15,-0.02,-0.04,-0.04,-0.09,0.02,0,96.6041338454015,143.067441707793,154.166544763062,166.441347947901,166.441347947901
35:18.685,0.03,0.31,0.01,-0.03,-0.04,0.34,0.04,-0.01,96.7579854931464,143.00641002762,154.167560958208,166.247061048089,166.247061048089
35:18.695,0,0.03,0.01,0,-0.02,-0.09,0.09,0,96.9118371408877,142.945378347447,154.168577153354,166.05277414828,166.05277414828
35:18.704,0,0.03,0.01,0,-0.02,-0.09,0.09,0,97.0656887886362,142.884346667273,154.1695933485,165.858487248464,165.858487248464
35:18.714,0.01,0,0.05,0.02,0.2,0,0.02,0.01,97.4259211214085,142.825773469281,154.111312000052,165.836237667392,165.836237667392
35:18.724,0.01,0,0.05,0.02,0.2,0,0.02,0.01,97.7861534542026,142.767200271288,154.053030651603,165.813988086319,165.813988086319
35:18.734,0.15,0.09,-0.01,-0.01,-0.08,-0.27,-0.02,0.03,98.1463857869821,142.708627073294,153.994749303154,165.791738505247,165.791738505247
35:18.744,0.15,0.09,-0.01,-0.01,-0.08,-0.27,-0.02,0.03,98.5066181197544,142.650053875302,153.936467954706,165.769488924175,165.769488924175
35:18.754,0.01,-0.26,-0.03,-0.02,-0.12,-0.32,-0.02,-0.01,98.8668504525267,142.591480677309,153.878186606258,165.747239343103,165.747239343103
35:18.795,-0.06,0.01,0,0,-0.04,-0.22,-0.09,-0.05,98.7145820421756,142.794023520921,154.068734894538,166.019400775618,166.019400775618
35:18.804,-0.06,0.01,0,0,-0.04,-0.22,-0.09,-0.05,98.5623136318227,142.996566364534,154.259283182819,166.291562208142,166.291562208142
35:18.815,0,0.06,-0.01,0,-0.17,0.09,-0.2,-0.02,98.5764343234746,143.048821122121,154.305520815049,166.384810772834,166.384810772834
35:18.830,-0.02,-0.04,-0.02,0.03,0.09,0.21,-0.01,0.02,98.5905550151263,143.101075879708,154.351758447279,166.478059337525,166.478059337525
35:18.843,-0.02,-0.04,-0.02,0.03,0.09,0.21,-0.01,0.02,98.6046757067779,143.153330637295,154.39799607951,166.571307902217,166.571307902217
35:18.856,0,0.09,0.02,0.03,0.27,0.09,0,0.01,98.6353959087901,143.398870558722,154.457742810808,166.704098513876,166.704098513876
35:18.867,0.01,0.11,0,0.05,0.13,-0.08,-0.05,-0.01,98.6661161108027,143.644410480149,154.517489542106,166.836889125532,166.836889125532
35:18.907,-0.03,-0.19,-0.01,-0.01,-0.05,-0.71,0.02,-0.02,98.6968363128149,143.889950401579,154.577236273404,166.969679737191,166.969679737191
35:18.916,0,0.03,-0.02,0,-0.18,0.2,0.11,0.01,98.5904397644717,143.693044995274,154.500665590438,166.904360089986,166.904360089986
35:18.926,-0.04,-0.23,0,-0.05,-0.19,-0.26,-0.03,0,98.4840432161327,143.496139588962,154.424094907474,166.839040442783,166.839040442783
35:18.935,-0.04,-0.23,0,-0.05,-0.19,-0.26,-0.03,0,98.3776466677846,143.299234182654,154.347524224504,166.773720795576,166.773720795576
35:18.944,-0.04,-0.23,0,-0.05,-0.19,-0.26,-0.03,0,98.2712501194401,143.102328776342,154.270953541536,166.708401148371,166.708401148371
35:18.956,-0.03,-0.06,0,-0.03,0.07,0.38,-0.07,0,98.1648535710992,142.905423370037,154.19438285857,166.643081501168,166.643081501168
35:18.965,-0.03,-0.06,0,-0.03,0.07,0.38,-0.07,0,98.529284255008,142.834355478844,153.948082056282,166.032039831109,166.032039831109
35:18.974,0.08,0.3,0,0.01,0.05,0.13,0.03,-0.02,98.893714938913,142.763287587652,153.701781253993,165.420998161062,165.420998161062
35:19.018,-0.04,-0.34,-0.08,-0.07,-0.16,0.1,-0.07,0,98.6366471255205,142.968841009504,153.782222338679,165.602674996317,165.602674996317
35:19.028,-0.04,-0.34,-0.08,-0.07,-0.16,0.1,-0.07,0,98.3795793121317,143.174394431349,153.862663423364,165.784351831564,165.784351831564
35:19.038,0.01,-0.15,-0.06,0.02,0.14,0.18,0.05,-0.01,98.1225114987465,143.379947853195,153.943104508049,165.966028666811,165.966028666811
35:19.048,-0.14,-0.12,0.03,-0.01,0.03,0.06,0.07,0,97.8654436853576,143.585501275051,154.023545592736,166.147705502066,166.147705502066
35:19.059,-0.14,-0.12,0.03,-0.01,0.03,0.06,0.07,0,97.9480749803633,143.647534705393,154.20656644818,166.217275530835,166.217275530835
35:19.069,0.03,0.13,0.01,-0.03,0.02,-0.02,-0.08,-0.01,98.0307062753691,143.709568135733,154.389587303624,166.286845559605,166.286845559605
35:19.081,0.06,0.46,0.1,-0.01,-0.15,0.1,0,0,98.1133375703776,143.771601566075,154.572608159069,166.356415588376,166.356415588376
35:19.131,0.05,0.05,0,-0.01,-0.16,-0.1,-0.06,0,98.5645639491959,143.691304067103,154.675955835191,166.522967282677,166.522967282677
35:19.147,0.05,0.05,0,-0.01,-0.16,-0.1,-0.06,0,99.0157903280087,143.611006568133,154.77930351131,166.689518976975,166.689518976975
35:19.163,0.03,0.47,-0.01,0.03,0.18,0.02,0,0,99.0280722282955,143.442745077096,154.529220390701,166.490170292036,166.490170292036
35:19.173,-0.05,-0.8,-0.05,0,0.01,0.19,0,-0.01,99.0403541285827,143.274483586054,154.279137270089,166.290821607094,166.290821607094
35:19.182,-0.05,-0.8,-0.05,0,0.01,0.19,0,-0.01,99.0526360288698,143.106222095015,154.029054149472,166.091472922148,166.091472922148
35:19.194,0,-0.19,-0.05,0.01,0.31,0.02,-0.14,-0.02,99.0649179291563,142.937960603984,153.778971028867,165.892124237209,165.892124237209
35:19.243,0.08,0,0,0.04,-0.26,0.3,0.12,0.03,98.3060766501076,142.763773390156,153.478043258019,165.729247228386,165.729247228386
35:19.252,0.04,-0.11,0,0.04,0.04,0.42,0.07,0.02,97.547235371072,142.589586176327,153.177115487175,165.566370219567,165.566370219567
35:19.261,0.04,-0.11,0,0.04,0.04,0.42,0.07,0.02,97.2416341010685,142.677065459749,152.971883177175,165.284141124426,165.284141124426
35:19.270,0.04,-0.11,0,0.04,0.04,0.42,0.07,0.02,96.9360328310577,142.764544743175,152.766650867175,165.001912029278,165.001912029278
35:19.282,0.01,0.09,0.1,0,0,-0.02,-0.04,0,96.6304315610541,142.852024026597,152.561418557176,164.719682934134,164.719682934134
35:19.295,0.01,0.02,-0.05,-0.01,-0.09,0.08,0.04,-0.03,96.3248302910506,142.939503310021,152.356186247176,164.437453838989,164.437453838989
35:19.343,-0.03,-0.15,-0.06,-0.05,0.08,-0.01,0.06,-0.01,96.3126632142264,143.156335689469,152.197408440314,164.450403278793,164.450403278793
35:19.352,0,-0.02,-0.01,-0.04,-0.09,0.03,-0.01,0.02,96.3004961374023,143.373168068916,152.038630633453,164.463352718597,164.463352718597
35:19.362,0,-0.02,-0.01,-0.04,-0.09,0.03,-0.01,0.02,96.3846019572866,143.284394941818,152.112514636121,164.531288436912,164.531288436912
35:19.373,-0.04,0.04,-0.06,0.01,0.06,-0.03,0.03,-0.01,96.4687077771687,143.195621814721,152.186398638789,164.599224155227,164.599224155227
35:19.381,-0.04,0.04,-0.06,0.01,0.06,-0.03,0.03,-0.01,96.5528135970526,143.106848687625,152.260282641457,164.667159873541,164.667159873541
35:19.391,0,0.22,0.13,0.06,0.16,0.6,-0.03,0,96.6369194169365,143.018075560527,152.334166644127,164.735095591856,164.735095591856
35:19.400,0.01,0.27,0.03,0.04,-0.03,-0.03,-0.22,-0.04,96.7210252368241,142.929302433427,152.408050646799,164.803031310174,164.803031310174
35:19.457,0.1,0.06,0.01,0.02,0.05,-0.11,0.07,0.01,96.805131056709,142.84052930633,152.481934649469,164.870967028489,173.65778358678
35:19.467,-0.01,0,-0.01,0.02,-0.05,-0.21,-0.14,0,96.9327711406004,142.817059312657,152.588493864359,165.003133753871,165.003133753871
35:19.477,-0.03,0.26,0,0.02,0.13,0,0.03,-0.04,97.060411224491,142.793589318984,152.695053079249,165.135300479251,165.135300479251
35:19.486,-0.03,0.26,0,0.02,0.13,0,0.03,-0.04,97.1880513083852,142.770119325311,152.801612294141,165.267467204634,165.267467204634
35:19.498,0.05,-0.16,0,-0.02,-0.04,-0.02,0.11,0.02,97.3156913922794,142.746649331637,152.908171509029,165.399633930014,165.399633930014
35:19.508,0.05,-0.16,0,-0.02,-0.04,-0.02,0.11,0.02,97.44333147617,142.723179337963,153.014730723919,165.531800655397,165.531800655397
35:19.518,-0.04,-0.18,-0.05,0,-0.1,0.12,0.06,-0.02,97.5709715600629,142.69970934429,153.121289938807,165.663967380781,174.238332426018
35:19.561,-0.06,-0.03,0.01,0,0.12,-0.04,0,0,97.5476985403916,142.785145295888,152.98027902504,165.506703288167,165.506703288167
35:19.576,0.01,0.4,0.04,0.04,-0.02,0.1,-0.02,0.02,97.5244255207199,142.870581247485,152.839268111271,165.349439195554,165.349439195554
35:19.589,0.01,0.4,0.04,0.04,-0.02,0.1,-0.02,0.02,97.5011525010486,142.956017199082,152.698257197504,165.19217510294,165.19217510294
35:19.601,0.11,-0.09,-0.1,-0.07,-0.2,0.09,0,0,97.4778794813774,143.041453150679,152.557246283737,165.034911010327,165.034911010327
35:19.612,-0.06,0.09,0.02,-0.05,-0.13,0.07,0.06,-0.02,97.608072187938,143.226406691083,152.5246502551,165.119973671738,165.119973671738
35:19.622,-0.01,-0.04,-0.01,0.02,-0.05,0.06,0.07,0,97.7382648944995,143.411360231488,152.492054226463,165.205036333148,165.205036333148
35:19.660,-0.03,0.02,-0.03,-0.04,-0.13,-0.07,-0.01,0,97.74232531429,143.487971693394,152.583450342814,165.255419655281,165.255419655281
35:19.671,0,0.16,-0.05,-0.04,-0.1,-0.06,-0.01,-0.01,97.7463857340805,143.564583155297,152.674846459166,165.305802977413,165.305802977413
35:19.681,-0.04,-0.1,0,0.01,0,-0.1,-0.05,-0.02,97.7504461538709,143.641194617201,152.766242575512,165.356186299545,165.356186299545
35:19.690,-0.04,-0.1,0,0.01,0,-0.1,-0.05,-0.02,97.7545065736615,143.717806079105,152.857638691859,165.406569621677,165.406569621677
35:19.701,-0.04,-0.21,-0.03,0,0.13,0.07,-0.08,0,97.7585669934522,143.79441754101,152.949034808211,165.456952943809,165.456952943809
35:19.709,-0.04,-0.21,-0.03,0,0.13,0.07,-0.08,0,97.7626274132427,143.871029002914,153.040430924559,165.50733626594,165.50733626594
35:19.719,0.01,-0.22,0.04,0,0.13,0.02,-0.03,0,97.5953743109712,143.683850231333,152.959212113783,165.484365343875,165.484365343875
35:19.727,-0.02,0.02,0.02,-0.02,-0.21,-0.02,-0.06,-0.02,97.4281212087008,143.496671459758,152.877993303007,165.461394421812,165.461394421812
35:19.737,-0.03,0.02,-0.02,-0.01,-0.07,0.21,0,0,97.2608681064266,143.309492688175,152.79677449223,165.438423499747,165.438423499747
35:19.778,0,0.24,0.13,0,0.05,-0.06,0.01,-0.02,97.4526130811391,143.23311979523,152.629162107245,165.322616271635,165.322616271635
35:19.790,-0.03,0.04,-0.02,0,0.1,-0.08,0.06,0,97.6443580558625,143.156746902287,152.461549722258,165.206809043524,165.206809043524
35:19.799,0.01,0.14,0,0.02,-0.07,0,0.03,0,97.8361030305714,143.080374009343,152.293937337276,165.091001815414,165.091001815414
35:19.808,0.01,0.14,0,0.02,-0.07,0,0.03,0,98.0278480052875,143.0040011164,152.126324952289,164.975194587299,164.975194587299
35:19.818,0,-0.04,-0.06,-0.07,-0.27,-0.07,-0.03,-0.01,97.8016213721494,143.419661034881,152.364358294133,165.221511700925,165.221511700925
35:19.830,0,-0.04,-0.06,-0.07,-0.27,-0.07,-0.03,-0.01,97.5753947390149,143.83532095336,152.60239163597,165.467828814551,165.467828814551
35:19.842,-0.01,-0.04,-0.01,0.01,-0.02,-0.18,0.06,0.01,97.3491681058695,144.250980871861,152.840424977818,165.714145928177,165.714145928177
35:19.883,-0.03,0,0.05,0.03,0.06,0.12,0,0,97.8380859708777,144.342308566677,152.916144709333,165.703646498031,165.703646498031
35:19.891,-0.03,0,0.05,0.03,0.06,0.12,0,0,98.3270038358824,144.433636261492,152.991864440847,165.693147067885,165.693147067885
35:19.901,0,-0.12,-0.01,-0.02,-0.05,-0.06,0.03,0.01,98.3346289520812,144.48849653907,153.025315809554,165.706066410388,165.706066410388
35:19.910,0,-0.14,-0.04,-0.01,0,0.18,-0.15,0,98.34225406828,144.543356816648,153.05876717826,165.718985752891,165.718985752891
35:19.920,0,-0.18,0,0.01,-0.06,-0.01,0.03,0,98.3498791844788,144.598217094226,153.092218546967,165.731905095394,165.731905095394
35:19.931,0,0.1,0,-0.07,-0.25,-0.07,0.01,0.02,98.3575043006776,144.653077371805,153.125669915674,165.744824437897,165.744824437897
35:19.940,-0.02,0.07,0.13,-0.09,-0.09,-0.47,-0.21,-0.04,98.3651294168765,144.707937649384,153.15912128438,165.757743780399,165.757743780399
35:19.949,-0.02,0.07,0.13,-0.09,-0.09,-0.47,-0.21,-0.04,98.3727545330752,144.762797926962,153.192572653086,165.770663122902,174.594238509867
35:20.001,0,0.18,-0.02,-0.01,-0.02,-0.34,-0.04,-0.01,98.2593582973877,144.684051990267,152.756662848165,165.309557919645,165.309557919645
35:20.011,0,0.18,-0.02,-0.01,-0.02,-0.34,-0.04,-0.01,98.1459620617024,144.605306053571,152.320753043241,164.848452716367,164.848452716367
35:20.022,-0.01,-0.01,0,0.01,0.08,0.11,0.04,0,98.0325658260135,144.526560116878,151.884843238331,164.387347513111,164.387347513111
35:20.034,0,0.01,-0.03,0,-0.02,-0.08,-0.04,0,97.9191695903282,144.447814180185,151.448933433428,163.92624230987,163.92624230987
35:20.044,-0.01,-0.04,-0.07,0,-0.13,-0.09,0,0,98.1163265159848,144.179156260259,151.213617336787,164.019125836345,164.019125836345
35:20.054,-0.01,0.05,0.04,0.1,0.09,0.27,0.08,-0.01,98.3134834416451,143.91049834033,150.978301240146,164.11200936282,164.11200936282
35:20.063,0,-0.07,-0.01,-0.02,0.02,0.02,-0.02,-0.01,98.5106403673017,143.641840420409,150.742985143508,164.204892889293,164.204892889293
35:20.103,0,0.13,0.03,0,-0.03,-0.78,-0.09,0,98.2143055177294,143.699062331122,150.722728024938,164.070831829218,164.070831829218
35:20.110,0,0.13,0.03,0,-0.03,-0.78,-0.09,0,97.9179706681607,143.756284241834,150.702470906368,163.936770769145,163.936770769145
35:20.121,0.01,-0.07,-0.02,-0.05,0.02,0.09,-0.03,0,97.621635818592,143.813506152547,150.682213787798,163.802709709074,163.802709709074
35:20.130,0.01,-0.07,-0.02,-0.05,0.02,0.09,-0.03,0,97.3253009690234,143.87072806326,150.661956669227,163.668648649002,163.668648649002
35:20.138,-0.01,-0.08,-0.15,-0.02,0.01,0.33,0.02,0,97.2549098151085,143.832923371522,150.591063800617,163.600243129434,163.600243129434
35:20.147,-0.01,0,-0.06,-0.03,0.03,0.13,0.01,0.01,97.1845186611936,143.795118679785,150.520170932006,163.531837609864,163.531837609864
35:20.156,-0.01,0.13,0.01,-0.01,-0.18,0.04,0.03,0.01,97.1141275072769,143.757313988045,150.449278063395,163.463432090293,163.463432090293
35:20.166,-0.01,0.13,0.01,-0.01,-0.18,0.04,0.03,0.01,97.0437363533592,143.719509296306,150.378385194783,163.395026570724,163.395026570724
35:20.175,0.01,-0.01,0.04,0,0.06,-0.04,-0.07,0,96.9733451994425,143.681704604568,150.307492326171,163.326621051156,163.326621051156
35:20.215,-0.01,-0.08,0,0,0.05,0.07,0.04,-0.02,97.3286685424973,143.652888614771,150.465978329703,163.455191328321,163.455191328321
35:20.226,0.01,-0.01,0,-0.03,-0.06,0.47,0.03,0,97.6839918855476,143.624072624974,150.624464333236,163.583761605485,163.583761605485
35:20.235,-0.01,-0.14,-0.06,-0.06,-0.01,-0.53,-0.05,0,98.0393152285978,143.595256635178,150.782950336768,163.712331882649,163.712331882649
35:20.244,-0.01,-0.14,-0.06,-0.06,-0.01,-0.53,-0.05,0,98.3946385716481,143.566440645383,150.941436340298,163.840902159809,163.840902159809
35:20.253,-0.01,-0.14,-0.06,-0.06,-0.01,-0.53,-0.05,0,98.8761891075774,143.517092646041,150.838290281987,163.494506818908,163.494506818908
35:20.263,0,-0.08,0.08,0,0.03,0.39,-0.01,0,99.3577396434921,143.467744646699,150.735144223676,163.148111478011,163.148111478011
35:20.277,0.01,0.26,0.04,0,-0.02,0.03,0.09,0.02,99.8392901794214,143.418396647356,150.631998165365,162.80171613711,162.80171613711
35:20.285,0,0,0.08,0.03,0.06,0.07,0.03,0,100.32084071534,143.369048648014,150.528852107054,162.455320796213,162.455320796213
35:20.341,0,0,-0.05,0.05,0.06,0,0.06,-0.02,100.11842571677,143.560232823018,150.600256362246,162.387015256274,162.387015256274
35:20.353,0.01,-0.08,0,-0.01,0.04,-0.08,0.08,0,99.9160107182033,143.75141699802,150.671660617438,162.318709716337,162.318709716337
35:20.362,0.01,-0.08,0,-0.01,0.04,-0.08,0.08,0,99.7135957196333,143.942601173025,150.743064872631,162.250404176399,162.250404176399
35:20.374,-0.01,-0.01,0.02,-0.01,0.03,0.06,0.04,0.01,99.5111807210633,144.133785348029,150.814469127824,162.18209863646,162.18209863646
35:20.386,0,-0.03,0.01,0,0.01,-0.49,-0.01,-0.01,99.3087657224969,144.32496952303,150.885873383014,162.113793096523,162.113793096523
35:20.436,0,-0.02,-0.04,-0.01,0.03,0.1,0.05,-0.01,99.1063507239274,144.516153698036,150.957277638205,162.045487556584,170.982274709819
35:20.446,0,-0.02,-0.04,-0.01,0.03,0.1,0.05,-0.01,100.713000006159,144.442454590031,150.605531803296,161.960218666789,161.960218666789
35:20.455,0,-0.03,0,0.01,0.11,0.04,0.03,0.03,102.319649288489,144.368755482024,150.253785968394,161.874949776986,161.874949776986
35:20.465,-0.01,0.02,0.01,-0.01,-0.1,0.12,0.07,-0.02,103.926298570761,144.295056374023,149.902040133486,161.789680887188,161.789680887188
35:20.476,-0.01,-0.03,0,-0.01,-0.07,-0.13,-0.13,0,105.532947853033,144.221357266018,149.550294298577,161.704411997391,161.704411997391
35:20.485,-0.01,-0.03,0,-0.01,-0.07,-0.13,-0.13,0,107.139597135305,144.147658158015,149.198548463675,161.619143107595,161.619143107595
35:20.495,-0.01,-0.06,-0.13,-0.03,-0.03,0.13,-0.03,0,108.746246417635,144.073959050011,148.846802628759,161.533874217796,161.533874217796
35:20.537,-0.02,-0.03,0,0.01,0.05,0.05,-0.01,-0.02,110.352895699898,144.000259942008,148.495056793851,161.448605328,173.554598558969
35:20.547,-0.02,-0.03,0,0.01,0.05,0.05,-0.01,-0.02,110.196279907155,143.973457622083,148.428750523373,161.332961434997,161.332961434997
35:20.556,-0.02,-0.03,0,0.01,0.05,0.05,-0.01,-0.02,110.039664114403,143.946655302158,148.362444252893,161.217317541992,161.217317541992
35:20.565,0,0.04,0.02,-0.03,0,0.44,-0.01,-0.02,109.883048321652,143.919852982232,148.296137982414,161.101673648987,161.101673648987
35:20.575,0,0.04,0.02,-0.03,0,0.44,-0.01,-0.02,109.726432528903,143.893050662307,148.229831711938,160.986029755983,160.986029755983
35:20.585,0,0.01,-0.01,-0.03,-0.02,-0.02,-0.02,0.01,109.569816736155,143.866248342382,148.16352544146,160.870385862974,160.870385862974
35:20.593,0,-0.01,0.16,0.05,0.06,0.38,-0.03,0,109.413200943414,143.839446022457,148.097219170983,160.754741969971,160.754741969971
35:20.602,0,-0.01,0.16,0.05,0.06,0.38,-0.03,0,109.256585150666,143.812643702532,148.030912900505,160.639098076968,160.639098076968
35:20.610,-0.01,0.01,0.02,-0.07,-0.06,-0.17,0.03,-0.01,109.408077715492,143.680347286028,147.843792435926,160.449585926301,160.449585926301
35:20.651,0,0,0.01,0.02,-0.1,-0.54,-0.04,-0.01,109.559570280322,143.548050869524,147.656671971343,160.260073775633,160.260073775633
35:20.661,0,-0.02,-0.02,0.01,-0.03,-0.49,0.04,0,110.180901337328,143.72947784721,147.836058540433,160.225898707556,160.225898707556
35:20.670,0,-0.02,-0.02,0.01,-0.03,-0.49,0.04,0,110.802232394315,143.910904824887,148.015445109515,160.191723639478,160.191723639478
35:20.682,0,0,0.01,-0.02,-0.08,-0.07,0.03,-0.03,111.423563451332,144.092331802578,148.194831678607,160.1575485714,160.1575485714
35:20.691,0,0,0.01,-0.02,-0.08,-0.07,0.03,-0.03,112.044894508334,144.273758780266,148.3742182477,160.123373503322,160.123373503322
35:20.701,0,-0.04,-0.06,-0.05,-0.07,0.56,0,-0.01,112.666225565306,144.45518575795,148.553604816785,160.089198435246,160.089198435246
35:20.709,0,-0.04,-0.06,-0.05,-0.07,0.56,0,-0.01,113.437971217878,144.231823033255,148.53771984325,159.587134423167,159.587134423167
35:20.720,0,0,-0.01,-0.05,-0.05,-0.05,-0.07,-0.01,114.209716870442,144.008460308562,148.521834869716,159.085070411093,159.085070411093
35:20.772,0,-0.01,-0.01,-0.06,-0.03,0.04,-0.08,-0.03,114.918962293814,143.938466115307,148.627995600449,159.034618441823,159.034618441823
35:20.782,-0.01,0.01,-0.02,0.02,0,-0.04,-0.01,0.01,115.628207717207,143.868471922053,148.734156331182,158.984166472554,158.984166472554
35:20.790,-0.01,0.01,-0.02,0.02,0,-0.04,-0.01,0.01,116.337453140586,143.798477728798,148.840317061913,158.933714503285,158.933714503285
35:20.801,0,-0.02,-0.04,-0.03,0.03,-0.07,0.01,-0.01,117.04669856395,143.728483535544,148.946477792648,158.883262534016,158.883262534016
35:20.810,0,-0.02,-0.04,-0.03,0.03,-0.07,0.01,-0.01,117.755943987329,143.658489342291,149.052638523381,158.832810564748,158.832810564748
35:20.819,0,-0.01,0.02,0.03,-0.03,-0.4,0.03,0.02,118.35079039933,143.590860234007,148.772254126518,158.679494753098,158.679494753098
35:20.828,0,-0.01,-0.02,-0.01,0.02,-0.07,0.02,0,118.945636811331,143.523231125722,148.491869729656,158.526178941449,158.526178941449
35:20.870,0,0,-0.04,-0.03,0.01,0.04,0,0,119.22708169603,143.522509161696,148.316133690278,158.385334894319,158.385334894319
35:20.880,-0.03,0.01,0.04,0,0,-0.03,-0.29,-0.03,119.508526580728,143.52178719767,148.140397650903,158.244490847195,158.244490847195
35:20.889,-0.03,0.01,0.04,0,0,-0.03,-0.29,-0.03,119.789971465427,143.521065233644,147.964661611528,158.103646800071,158.103646800071
35:20.900,-0.01,0,-0.03,-0.01,-0.02,0.01,0.07,-0.04,120.071416350132,143.520343269618,147.788925572142,157.962802752936,157.962802752936
35:20.908,-0.01,0,-0.03,-0.01,-0.02,0.01,0.07,-0.04,120.352861234831,143.519621305591,147.613189532767,157.821958705808,157.821958705808
35:20.919,0,-0.02,0,-0.03,-0.08,-0.14,0.02,-0.02,120.800888988197,143.934623748821,147.928558611322,158.144661883671,158.144661883671
35:20.928,0,-0.02,0,-0.03,-0.08,-0.14,0.02,-0.02,121.248916741562,144.349626192052,148.243927689873,158.467365061537,158.467365061537
35:20.938,-0.01,-0.01,-0.02,0,0.14,0.14,-0.05,-0.04,121.696944494928,144.764628635268,148.559296768428,158.790068239388,158.790068239388
35:20.987,0,0,0.02,0.02,0.09,-0.18,0.07,0,124.010525388614,145.086421778127,148.721086829144,158.823439181384,158.823439181384
35:20.996,0,-0.01,0,-0.02,0,-0.86,-0.09,0.02,126.324106282322,145.408214920993,148.88287688986,158.85681012338,158.85681012338
35:21.005,0,0.01,0.04,-0.01,-0.03,0.01,-0.02,-0.02,128.637687175942,145.730008063838,149.044666950573,158.890181065376,158.890181065376
35:21.015,-0.01,-0.02,0,-0.03,-0.07,0.09,-0.3,-0.01,130.217358156719,145.818455724653,149.099559639304,159.087163488348,159.087163488348
35:21.026,-0.01,0,0,0,0.02,-0.22,0.04,0.01,131.797029137495,145.906903385468,149.154452328037,159.284145911319,159.284145911319
35:21.039,0.01,0.01,-0.02,0.01,0.06,0.3,-0.02,0,133.376700118271,145.995351046282,149.209345016769,159.481128334293,159.481128334293
35:21.048,0,-0.05,0.12,0,0,-0.1,-0.05,-0.01,134.95637109899,146.083798707095,149.264237705498,159.678110757261,159.678110757261
35:21.090,-0.01,-0.03,-0.11,-0.02,0.02,0.3,0.08,0.01,134.177452519507,145.88205642367,149.147384774668,159.605221481095,159.605221481095
35:21.099,-0.01,-0.03,-0.11,-0.02,0.02,0.3,0.08,0.01,133.398533940039,145.680314140247,149.03053184384,159.53233220493,159.53233220493
35:21.109,0,0.04,0.01,0.03,0.05,0.01,-0.03,0,133.696760411669,145.553394056866,149.104756237051,159.658806274949,159.658806274949
35:21.120,0,0,0,-0.03,-0.08,0.01,0.01,0,133.994986883292,145.426473973483,149.17898063026,159.785280344968,159.785280344968
35:21.131,0,0,0.01,0,0.01,0.08,0.07,0.01,134.293213354918,145.299553890101,149.253205023469,159.911754414985,159.911754414985
35:21.141,0,0,-0.01,-0.01,-0.05,-0.37,-0.08,-0.01,134.59143982656,145.172633806718,149.32742941668,160.038228485006,160.038228485006
35:21.150,0,0,-0.01,-0.01,-0.05,-0.37,-0.08,-0.01,134.889666298183,145.045713723338,149.401653809891,160.164702555024,173.035441398589
35:21.208,-0.01,-0.01,-0.03,-0.01,0.01,-0.3,0.04,0,134.3938189482,145.324034150268,149.540976801567,160.499082652248,160.499082652248
35:21.218,0,0.01,0,-0.02,-0.07,-0.14,-0.02,0.01,133.897971598213,145.602354577197,149.680299793243,160.833462749462,160.833462749462
35:21.228,0,0.01,0,-0.02,-0.07,-0.14,-0.02,0.01,133.402124248227,145.880675004126,149.819622784918,161.167842846684,161.167842846684
35:21.240,0,0.01,0,-0.01,0,0.39,0,0,132.90627689824,146.158995431062,149.958945776594,161.502222943906,161.502222943906
35:21.249,0,0.01,0,-0.01,0,0.39,0,0,132.410429548254,146.437315857998,150.098268768272,161.836603041127,161.836603041127
35:21.259,-0.01,-0.01,-0.01,-0.01,-0.01,0.16,0.06,0,133.045867122695,146.810172089445,150.161422630584,162.216578753239,162.216578753239
35:21.268,0,-0.01,-0.01,-0.01,0.03,-0.16,-0.06,0,133.681304697144,147.183028320891,150.224576492897,162.596554465355,162.596554465355
35:21.312,0,0,-0.05,0,0.04,-0.38,0.02,0.01,133.721399458658,147.168336845481,150.262130291221,162.619487489075,162.619487489075
35:21.322,0,0.02,-0.01,-0.02,-0.04,0.21,0,0,133.761494220173,147.153645370071,150.299684089546,162.642420512794,162.642420512794
35:21.333,0,0,0,-0.01,-0.03,-0.28,-0.15,0,133.801588981688,147.13895389466,150.337237887871,162.665353536514,162.665353536514
35:21.342,0.01,0.01,0.14,0,0,0.02,-0.07,0,133.841683743201,147.124262419249,150.374791686197,162.688286560234,162.688286560234
35:21.351,0.01,0.01,0.14,0,0,0.02,-0.07,0,134.095296070431,147.088422951244,150.226380168104,162.698733410881,162.698733410881
35:21.360,0,0.01,-0.04,0,-0.03,0.05,-0.01,-0.03,134.34890839766,147.05258348324,150.077968650006,162.709180261529,162.709180261529
35:21.369,0.01,0,0,-0.02,-0.07,0.03,0.02,0,134.602520724889,147.016744015235,149.929557131913,162.719627112177,162.719627112177
35:21.379,0,0,-0.02,-0.01,0.01,0,-0.01,0.01,134.856133052119,146.98090454723,149.781145613819,162.730073962825,162.730073962825
35:21.421,-0.01,-0.02,-0.03,0,0.07,-0.27,-0.08,-0.01,134.919333981449,146.736121276081,149.510510636057,162.567012503665,162.567012503665
35:21.431,-0.01,-0.02,-0.03,0,0.07,-0.27,-0.08,-0.01,134.982534910779,146.491338004933,149.239875658299,162.403951044504,162.403951044504
35:21.439,0.02,0.03,0.02,0.03,0.08,0.25,0.19,0.01,135.045735840108,146.246554733785,148.969240680541,162.240889585348,162.240889585348
35:21.448,0,-0.01,-0.02,0,0.02,0.11,0.01,0.04,136.118404706707,146.199616167355,148.938891685667,162.348853308717,162.348853308717
35:21.457,0,0.03,0.05,0.02,0.06,0.11,0,0.01,137.191073573311,146.152677600923,148.908542690793,162.456817032082,162.456817032082
35:21.467,0,0.03,0.05,0.02,0.06,0.11,0,0.01,138.263742439944,146.105739034492,148.878193695919,162.564780755452,162.564780755452
35:21.478,-0.01,-0.01,0.04,0.01,0.01,-0.08,-0.02,-0.04,139.336411306576,146.058800468063,148.847844701047,162.672744478821,162.672744478821
35:21.487,-0.01,-0.04,-0.07,0,0.03,-0.41,-0.12,-0.03,140.40908017318,146.011861901633,148.817495706173,162.78070820219,162.78070820219
35:21.527,-0.01,-0.04,-0.07,0,0.03,-0.41,-0.12,-0.03,140.248032183063,146.126919879139,149.120346835713,163.11533592339,163.11533592339
35:21.537,-0.01,-0.04,-0.07,0,0.03,-0.41,-0.12,-0.03,140.086984192949,146.241977856644,149.423197965254,163.449963644583,163.449963644583
35:21.547,0.02,0.01,0,-0.02,-0.09,-0.24,0.03,0.02,140.123402636096,146.112701847902,149.535284182088,163.516495834441,163.516495834441
35:21.564,0,-0.01,-0.03,0,0.01,0.14,0.01,0.02,140.159821079244,145.983425839157,149.647370398923,163.583028024299,163.583028024299
35:21.576,0,-0.01,-0.08,-0.06,-0.05,-0.02,-0.02,-0.02,140.196239522391,145.854149830418,149.759456615755,163.649560214157,163.649560214157
35:21.588,0,-0.01,-0.08,-0.06,-0.05,-0.02,-0.02,-0.02,140.99692265693,146.133311158988,150.061346056038,164.226743068997,164.226743068997
35:21.634,0,0,0.05,0,-0.01,-0.26,-0.01,0,141.797605791478,146.412472487558,150.363235496327,164.80392592385,164.80392592385
35:21.643,0,0.03,0.04,0.01,0,0.17,-0.09,0,142.182364847176,146.337810346196,150.34780768351,164.745902688257,164.745902688257
35:21.654,0,0.03,0.04,0.01,0,0.17,-0.09,0,142.56712390286,146.263148204835,150.332379870693,164.687879452664,164.687879452664
35:21.664,-0.01,-0.01,0.04,0.04,-0.04,-0.47,-0.13,-0.04,142.951882958558,146.188486063475,150.316952057876,164.629856217069,164.629856217069
35:21.674,-0.01,-0.01,0.04,0.04,-0.04,-0.47,-0.13,-0.04,143.336642014241,146.113823922115,150.301524245059,164.571832981474,164.571832981474
35:21.683,-0.01,0,0.01,-0.01,-0.09,0.02,-0.02,0.01,143.721401069946,146.039161780751,150.286096432242,164.513809745877,164.513809745877
35:21.691,-0.01,0,0.01,-0.01,-0.09,0.02,-0.02,0.01,144.106160125644,145.964499639389,150.270668619425,164.455786510282,164.455786510282
35:21.701,0,0.02,0.01,-0.03,0,-0.52,-0.08,0,144.490919181361,145.889837498023,150.255240806608,164.397763274685,179.060542226718
35:21.744,0,0,-0.03,-0.01,0.01,0.17,0.09,0,145.424095107039,145.740806571433,150.32710638523,164.618332070811,164.618332070811
35:21.754,0,0,-0.03,0,0.01,0.07,-0.02,-0.01,146.357271032728,145.59177564484,150.398971963852,164.83890086694,164.83890086694
35:21.763,0,-0.01,-0.03,0.12,0.27,-0.09,0.05,0.01,147.290446958417,145.44274471825,150.470837542476,165.059469663065,165.059469663065
35:21.775,0,-0.01,-0.03,0.12,0.27,-0.09,0.05,0.01,148.223622884092,145.293713791663,150.5427031211,165.28003845919,165.28003845919
35:21.783,-0.02,-0.02,-0.04,-0.09,-0.12,-0.13,-0.01,-0.02,149.156798809767,145.144682865073,150.614568699722,165.500607255311,165.500607255311
35:21.793,-0.02,-0.02,-0.04,-0.09,-0.12,-0.13,-0.01,-0.02,149.659588648821,144.940351223104,150.792915659844,165.555487784788,165.555487784788
35:21.803,-0.01,-0.03,0.03,-0.03,-0.04,0.21,0.06,0,150.162378487876,144.736019581134,150.971262619962,165.610368314263,165.610368314263
35:21.814,0,0.04,0.03,-0.02,0,0.06,0.05,0,150.665168326945,144.531687939158,151.149609580087,165.66524884374,165.66524884374
35:21.864,0,0.01,-0.01,-0.03,-0.11,-0.11,-0.06,-0.01,150.132729997356,144.578694938009,151.516878093469,165.823811899256,165.823811899256
35:21.874,0,0,0,-0.02,-0.02,-0.05,0.07,0.02,149.600291667753,144.625701936862,151.884146606859,165.982374954774,165.982374954774
35:21.884,0,0,0,-0.02,-0.02,-0.05,0.07,0.02,149.726242982513,144.568067443267,151.801483423485,165.849012366019,165.849012366019
35:21.893,-0.02,-0.04,-0.05,0.04,0,-0.33,-0.07,-0.02,149.852194297266,144.510432949672,151.718820240114,165.71564977727,165.71564977727
35:21.902,0.01,0,0,-0.05,-0.02,0.14,-0.03,0,149.978145612022,144.452798456079,151.636157056739,165.582287188518,165.582287188518
35:21.912,0.01,0,0,-0.05,-0.02,0.14,-0.03,0,150.10409692678,144.395163962485,151.553493873365,165.448924599765,165.448924599765
35:21.921,0.01,0.04,0.09,0.02,-0.01,0.09,0,0,150.230048241541,144.337529468889,151.470830689988,165.315562011006,165.315562011006
35:21.960,-0.01,-0.04,-0.05,-0.08,-0.12,-0.17,0,0,150.069780231241,144.641816910153,151.550824085921,165.429073026233,165.429073026233
35:21.971,-0.01,-0.04,-0.05,-0.08,-0.12,-0.17,0,0,149.909512220933,144.946104351431,151.630817481853,165.542584041461,165.542584041461
35:21.980,0,-0.01,-0.01,-0.01,-0.02,0.19,0.07,0,149.74924421063,145.250391792702,151.710810877787,165.656095056689,165.656095056689
35:21.989,0,-0.01,-0.01,-0.01,-0.02,0.19,0.07,0,149.588976200328,145.554679233966,151.790804273722,165.769606071915,165.769606071915
35:21.998,-0.01,0,0,-0.03,-0.01,-0.18,0.03,0,149.797872713418,145.687477779342,151.906466056489,165.807807905067,165.807807905067
35:22.009,0,-0.01,-0.02,0.04,0.02,0.2,0.02,0,150.0067692265,145.820276324714,152.022127839256,165.846009738217,165.846009738217
35:22.019,0,-0.01,0.02,0.01,0.04,0.36,0.02,0.01,150.21566573959,145.953074870093,152.137789622029,165.884211571368,165.884211571368
35:22.028,-0.02,0.02,0.05,0,-0.03,-0.22,-0.09,-0.02,150.424562252676,146.085873415464,152.253451404795,165.922413404517,165.922413404517
35:22.068,-0.01,0.01,0.12,-0.02,-0.06,-0.04,-0.07,-0.02,150.596328525369,145.83807784571,152.194724808714,165.876055405622,165.876055405622
35:22.077,0.01,-0.02,-0.09,-0.02,-0.02,-0.25,-0.01,0.01,150.768094798066,145.590282275953,152.135998212632,165.829697406726,165.829697406726
35:22.088,0.01,-0.02,-0.09,-0.02,-0.02,-0.25,-0.01,0.01,150.769433304892,145.461224108534,152.077020404185,165.749319443539,165.749319443539
35:22.097,0.01,-0.02,-0.09,-0.02,-0.02,-0.25,-0.01,0.01,150.770771811718,145.332165941119,152.018042595739,165.668941480355,165.668941480355
35:22.109,0,0,0.01,-0.03,0,0.04,0.04,-0.01,150.772110318543,145.203107773701,151.95906478729,165.588563517167,165.588563517167
35:22.118,0,0,0.01,-0.03,0,0.04,0.04,-0.01,150.773448825369,145.074049606286,151.900086978842,165.508185553979,165.508185553979
35:22.127,-0.01,-0.01,-0.08,-0.06,-0.07,-0.09,-0.01,-0.01,150.774787332194,144.944991438875,151.841109170394,165.427807590793,165.427807590793
35:22.136,0,-0.05,-0.04,-0.01,-0.04,0.44,-0.01,0,150.77612583902,144.815933271464,151.782131361945,165.347429627607,177.101906207655
35:22.183,0,0,-0.02,-0.01,0,0.15,-0.02,0,150.656504446164,144.806424326623,152.07909107559,165.53678749254,165.53678749254
35:22.200,-0.01,0.01,0.04,-0.02,0.01,0.06,-0.05,-0.02,150.536883053308,144.796915381783,152.376050789229,165.726145357472,165.726145357472
35:22.212,-0.01,0.01,0.04,-0.02,0.01,0.06,-0.05,-0.02,150.417261660448,144.787406436941,152.673010502876,165.915503222412,165.915503222412
35:22.224,0,-0.01,-0.02,0,-0.06,-0.05,-0.06,-0.03,150.237116245513,144.756952830248,152.765603285066,166.02383792408,166.02383792408
35:22.234,-0.01,0.01,0.08,-0.03,0,-0.16,-0.04,0,150.056970830581,144.726499223556,152.858196067256,166.132172625748,166.132172625748
35:22.245,-0.01,-0.01,-0.03,-0.01,-0.03,-0.33,0.06,0.01,149.876825415638,144.696045616862,152.95078884945,166.240507327422,166.240507327422
35:22.288,0,-0.01,0.01,0.03,0.12,0.03,-0.01,0.01,150.069262040182,144.452252262141,152.868641090204,166.053343511783,166.053343511783
35:22.300,-0.01,-0.01,-0.09,-0.03,-0.07,-0.11,-0.02,-0.02,150.261698664726,144.208458907422,152.786493330957,165.86617969615,165.86617969615
35:22.309,-0.01,-0.01,-0.09,-0.03,-0.07,-0.11,-0.02,-0.02,150.45413528927,143.964665552703,152.70434557171,165.679015880516,165.679015880516
35:22.319,0,-0.02,-0.03,0,-0.03,-0.18,-0.08,-0.02,150.45204703906,144.047548815497,152.684945269324,165.838941133217,165.838941133217
35:22.331,0,-0.02,-0.03,0,-0.03,-0.18,-0.08,-0.02,150.449958788849,144.130432078291,152.665544966937,165.998866385919,165.998866385919
35:22.340,0.01,0,0.02,0.03,0.22,0.23,0.02,0.01,150.447870538639,144.213315341085,152.64614466455,166.158791638616,166.158791638616
35:22.352,-0.02,0,-0.04,0.02,0.02,-0.09,-0.08,-0.04,150.445782288428,144.296198603877,152.626744362164,166.318716891317,166.318716891317
35:22.393,0,0.01,0.12,-0.01,-0.05,0.01,0,0,150.730120360284,144.185777670122,152.413171404742,166.1324263685,166.1324263685
35:22.402,-0.01,-0.01,-0.05,-0.03,-0.02,-0.03,-0.08,-0.01,151.014458432142,144.075356736364,152.199598447316,165.946135845679,165.946135845679
35:22.412,-0.01,-0.01,-0.05,-0.03,-0.02,-0.03,-0.08,-0.01,150.92424381791,144.065046338959,152.097112013742,166.007599441844,166.007599441844
35:22.423,0,-0.01,-0.04,0,0,0.2,0.03,0,150.834029203677,144.054735941554,151.994625580166,166.069063038007,166.069063038007
35:22.432,0,-0.01,-0.04,0,0,0.2,0.03,0,150.743814589443,144.044425544148,151.892139146592,166.130526634171,166.130526634171
35:22.443,0,-0.03,-0.11,0.03,-0.04,-0.22,-0.1,0,150.65359997521,144.034115146742,151.78965271302,166.191990230335,166.191990230335
35:22.452,0,-0.03,-0.11,0.03,-0.04,-0.22,-0.1,0,150.563385360978,144.023804749337,151.687166279447,166.253453826499,166.253453826499
35:22.462,-0.01,0,-0.01,0.01,0.05,-0.25,-0.01,0,150.473170746746,144.013494351931,151.584679845875,166.314917422663,176.521912382914
35:22.516,0,0,-0.01,-0.02,0,0.33,0.18,0,150.503885615263,143.835101186378,151.523202295449,166.199148487633,166.199148487633
35:22.526,0,0.01,0.02,-0.01,-0.01,-0.11,0.04,-0.02,150.534600483781,143.65670802083,151.461724745024,166.083379552598,166.083379552598
35:22.537,0,0.01,0.02,-0.01,-0.01,-0.11,0.04,-0.02,150.565315352299,143.478314855278,151.400247194598,165.967610617568,165.967610617568
35:22.547,0,0.01,0.02,-0.01,-0.01,-0.11,0.04,-0.02,150.596030220816,143.299921689726,151.33876964417,165.851841682539,165.851841682539
35:22.556,-0.01,-0.01,-0.02,-0.02,0,-0.1,-0.24,-0.04,151.084486265907,143.333651258823,151.317969996637,166.002282934007,166.002282934007
35:22.566,-0.01,-0.01,0,-0.02,-0.03,-0.15,0.03,0.01,151.572942310973,143.36738082792,151.297170349103,166.152724185471,166.152724185471
35:22.575,0,0,0.02,0.04,0.01,0.28,0.01,0.02,152.061398356076,143.401110397018,151.276370701569,166.303165436944,166.303165436944
35:22.618,0,0,-0.02,0.02,0.02,-0.04,0.06,0,152.53631797956,143.65138099929,151.450878293748,166.474538194918,166.474538194918
35:22.631,-0.02,-0.02,-0.09,-0.03,-0.03,-0.16,0.01,-0.02,153.011237603045,143.901651601562,151.625385885924,166.645910952895,166.645910952895
35:22.642,-0.02,-0.01,0.01,0,0.02,-0.35,-0.07,0,153.486157226536,144.151922203833,151.799893478103,166.817283710869,166.817283710869
35:22.651,0,0,-0.03,-0.01,-0.02,0.42,0,0,153.961076850035,144.402192806112,151.974401070282,166.98865646885,166.98865646885
35:22.660,0,0,-0.03,-0.01,-0.02,0.42,0,0,154.257037723968,144.476378123537,152.303009853844,166.91376304036,166.91376304036
35:22.670,0,-0.01,0,-0.04,-0.13,-0.1,0.05,-0.02,154.552998597894,144.550563440959,152.631618637395,166.838869611872,166.838869611872
35:22.680,0,-0.01,0.05,0.01,-0.03,0.35,0.03,-0.03,154.84895947183,144.624748758384,152.960227420961,166.763976183383,166.763976183383
35:22.719,0,0,-0.02,0,-0.01,0,0.01,0,154.907109669545,144.513796075118,152.915928297069,166.848020546249,166.848020546249
35:22.730,0,0.01,-0.01,0.07,0.12,0.14,0,0.02,154.965259867258,144.402843391857,152.871629173176,166.932064909117,166.932064909117
35:22.739,-0.02,0.01,0.01,-0.04,-0.05,0.37,0.13,0,155.023410064972,144.291890708591,152.827330049285,167.016109271981,167.016109271981
35:22.751,-0.03,0.03,0.07,0.01,-0.02,-0.42,0.03,-0.02,155.081560262687,144.180938025325,152.783030925391,167.100153634849,167.100153634849
35:22.759,0,0.01,0.25,-0.01,0,0.18,0,0,155.139710460401,144.069985342061,152.738731801499,167.184197997714,167.184197997714
35:22.769,0,0.01,0.25,-0.01,0,0.18,0,0,155.183489089995,144.170080263983,152.642516026843,167.250913910645,167.250913910645
35:22.779,0,0.01,0.25,-0.01,0,0.18,0,0,155.227267719589,144.270175185902,152.54630025219,167.317629823572,167.317629823572
35:22.789,0,-0.01,-0.05,0,-0.02,-0.31,-0.04,0,155.271046349183,144.370270107825,152.450084477534,167.384345736504,167.384345736504
35:22.832,-0.01,0,-0.09,-0.05,-0.02,0.05,-0.1,-0.04,155.248622737672,144.379597394073,152.534664932599,167.428705780209,167.428705780209
35:22.844,0,0,0.03,-0.01,0.03,-0.06,-0.01,0,155.22619912616,144.38892468032,152.619245387667,167.473065823914,167.473065823914
35:22.854,0,0,0.03,-0.01,0.03,-0.06,-0.01,0,155.20377551465,144.398251966567,152.703825842729,167.517425867619,167.517425867619
35:22.864,0,0,-0.02,0.08,0.04,0.04,-0.14,-0.01,155.298317440787,144.611661003601,152.870881599963,167.632782246137,167.632782246137
35:22.873,0,0,-0.02,0.08,0.04,0.04,-0.14,-0.01,155.392859366928,144.825070040628,153.037937357196,167.748138624662,167.748138624662
35:22.883,-0.01,-0.02,-0.09,-0.03,0.08,-0.49,-0.03,0.01,155.487401293063,145.038479077659,153.204993114425,167.863495003179,167.863495003179
35:22.892,-0.01,-0.02,-0.09,-0.03,0.08,-0.49,-0.03,0.01,155.5819432192,145.25188811469,153.37204887165,167.978851381698,167.978851381698
35:22.900,0,-0.02,-0.01,-0.02,-0.02,0.34,0.06,0,155.676485145335,145.465297151721,153.539104628875,168.094207760216,168.094207760216
35:22.952,0,0,0,0.02,-0.04,-0.42,0.04,0,155.92438317374,145.657069386873,153.57551520215,168.198172365239,168.198172365239
35:22.963,0,-0.01,0,-0.01,0,0.28,0.04,0,156.172281202145,145.848841622024,153.611925775425,168.302136970263,168.302136970263
35:22.974,0,-0.01,0,-0.01,0,0.28,0.04,0,156.3029552229,145.770366387114,153.512417788937,168.109360591203,168.109360591203
35:22.983,-0.01,0,-0.03,-0.02,-0.04,-0.1,-0.08,-0.05,156.433629243653,145.691891152208,153.412909802453,167.916584212144,167.916584212144
35:22.992,-0.01,0,-0.03,-0.02,-0.04,-0.1,-0.08,-0.05,156.564303264404,145.6134159173,153.313401815965,167.723807833092,167.723807833092
35:23.001,-0.02,-0.03,-0.05,-0.03,0,0.11,-0.1,-0.03,156.694977285157,145.534940682392,153.213893829477,167.531031454037,167.531031454037
35:23.010,0,0,0,0.02,0.01,-0.1,0,0,156.825651305911,145.456465447483,153.114385842988,167.338255074974,167.338255074974
35:23.050,-0.01,-0.02,-0.04,-0.06,-0.03,0.28,-0.15,0.01,156.900807574165,145.25415633752,152.809139019217,167.132541592935,167.132541592935
35:23.063,0,0,0.06,-0.02,-0.03,-0.08,0.12,0.01,156.975963842422,145.051847227554,152.503892195447,166.926828110893,166.926828110893
35:23.072,0,0,0.06,-0.02,-0.03,-0.08,0.12,0.01,157.051120110675,144.849538117593,152.198645371682,166.721114628857,166.721114628857
35:23.081,0,0.02,0.02,-0.04,-0.09,0,-0.03,0,157.353276131194,144.961953118049,152.05416632738,166.613810789071,166.613810789071
35:23.090,-0.01,0,0.05,0,-0.09,-0.11,-0.09,0,157.655432151711,145.074368118505,151.909687283081,166.506506949288,166.506506949288
35:23.100,0,-0.03,-0.09,-0.02,-0.05,0.04,0.02,0,157.957588172219,145.186783118959,151.765208238783,166.399203109504,166.399203109504
35:23.110,0,-0.01,-0.02,0.04,0.08,0.21,0,-0.01,158.259744192736,145.299198119415,151.620729194483,166.291899269718,166.291899269718
35:23.117,0,0,-0.01,-0.01,0.04,0.32,-0.1,-0.03,158.561900213259,145.411613119875,151.476250150179,166.184595429928,166.184595429928
35:23.158,0,-0.01,-0.01,-0.05,-0.06,0.28,0.04,-0.01,158.823126962765,145.136065989947,151.97637171208,166.351759779058,166.351759779058
35:23.169,0,-0.01,-0.07,0.02,-0.03,0.07,0.08,-0.01,159.084353712278,144.860518860012,152.476493273993,166.518924128191,166.518924128191
35:23.178,0,-0.01,-0.07,0.02,-0.03,0.07,0.08,-0.01,159.345580461792,144.584971730081,152.976614835905,166.686088477323,166.686088477323
35:23.187,0,-0.01,-0.03,-0.05,-0.02,-0.05,0.06,0.01,159.498270891268,144.55550271718,152.740846875509,166.482197465233,166.482197465233
35:23.196,0,-0.01,-0.03,-0.05,-0.02,-0.05,0.06,0.01,159.650961320742,144.52603370428,152.505078915114,166.278306453154,166.278306453154
35:23.209,0,0,-0.05,0,0.01,0.53,-0.02,0.01,159.803651750219,144.496564691379,152.269310954711,166.074415441064,166.074415441064
35:23.220,0.01,0,0,-0.03,-0.03,0.13,-0.02,-0.02,159.956342179696,144.467095678478,152.033542994315,165.87052442897,165.87052442897
35:23.231,0,0,-0.03,-0.03,-0.04,-0.11,-0.06,-0.01,160.109032609169,144.437626665578,151.797775033923,165.666633416884,165.666633416884
35:23.273,0,0,-0.03,-0.03,-0.04,-0.11,-0.06,-0.01,160.113219934877,144.488774115722,151.835597049541,166.002916141457,166.002916141457
35:23.284,-0.02,0.01,0.03,0.02,-0.01,-0.3,-0.2,-0.04,160.117407260585,144.539921565866,151.873419065158,166.339198866037,166.339198866037
35:23.294,-0.02,0.01,0.03,0.02,-0.01,-0.3,-0.2,-0.04,160.121594586293,144.591069016009,151.911241080777,166.675481590602,166.675481590602
35:23.304,0,-0.03,-0.08,-0.03,-0.1,-0.24,0.02,0,159.95796534972,144.781898500012,151.732189760409,166.564543174887,166.564543174887
35:23.313,0,-0.03,-0.08,-0.03,-0.1,-0.24,0.02,0,159.794336113147,144.972727984012,151.553138440046,166.453604759172,166.453604759172
35:23.322,-0.01,-0.01,0,-0.05,0,-0.09,-0.03,-0.01,159.630706876571,145.163557468011,151.374087119679,166.342666343458,166.342666343458
35:23.334,0,0.01,0.07,0.03,0.04,-0.04,0.08,0.02,159.467077639994,145.354386952018,151.195035799312,166.231727927743,166.231727927743
35:23.382,-0.01,-0.01,-0.05,-0.02,-0.07,-0.3,-0.03,-0.02,159.762400290598,145.106435853157,151.218966530364,166.18375275883,166.18375275883
35:23.394,-0.01,-0.01,-0.05,-0.02,-0.07,-0.3,-0.03,-0.02,160.057722941208,144.858484754292,151.242897261416,166.135777589917,166.135777589917
35:23.404,0,-0.01,-0.04,-0.06,-0.02,0.09,-0.04,0.01,160.303764734857,144.825518996186,151.185195144893,166.100148663366,166.100148663366
35:23.414,0,-0.02,0,-0.03,0.01,-0.09,0.11,0,160.549806528514,144.792553238081,151.127493028373,166.064519736816,166.064519736816
35:23.425,0,-0.02,0,-0.03,0.01,-0.09,0.11,0,160.795848322159,144.759587479974,151.069790911848,166.028890810264,166.028890810264
35:23.440,-0.01,0,-0.01,-0.04,-0.01,0.11,-0.02,0.01,161.041890115797,144.726621721868,151.012088795325,165.993261883712,165.993261883712
35:23.449,0,-0.04,-0.15,0.01,-0.01,-0.11,-0.02,0,161.28793190945,144.693655963762,150.954386678801,165.957632957158,165.957632957158
35:23.491,-0.01,0,0.01,0.02,0.02,-0.04,-0.2,-0.05,161.533973703097,144.660690205656,150.896684562277,165.922004030606,176.515464297889
35:23.502,0,0,0,0,-0.01,-0.04,-0.02,0,161.149509272094,144.556984414656,150.786761967956,165.892573420305,165.892573420305
35:23.516,0,0,0,0,-0.01,-0.04,-0.02,0,160.765044841093,144.453278623656,150.676839373635,165.863142810003,165.863142810003
35:23.529,-0.01,0,-0.01,0.02,0.01,-0.06,-0.12,-0.03,160.380580410092,144.349572832656,150.566916779315,165.833712199701,165.833712199701
35:23.541,-0.01,0,0,0,-0.01,-0.04,-0.01,-0.01,159.996115979076,144.245867041654,150.456994184993,165.804281589398,165.804281589398
35:23.551,0,-0.03,-0.07,0,-0.02,0.02,0.05,0.02,159.928926107341,144.175884176453,150.292514676712,165.854227082829,165.854227082829
35:23.593,0,0,0.03,0.04,0.03,0.07,0.04,0,159.861736235606,144.105901311251,150.128035168431,165.90417257626,165.90417257626
35:23.602,-0.01,0,0.03,-0.03,-0.04,-0.1,0.07,0.01,159.85631761288,144.031697765222,150.020699824843,165.815961511751,165.815961511751
35:23.612,0.01,-0.03,-0.02,0.01,0.08,-0.02,0.13,0.02,159.850898990154,143.957494219194,149.913364481257,165.72775044724,165.72775044724
35:23.621,0,0,0.01,0.01,0.02,-0.06,0.05,0.01,159.845480367428,143.883290673168,149.806029137671,165.639539382733,165.639539382733
35:23.631,0,0.01,0.03,-0.03,-0.04,0.07,0,0,159.840061744702,143.80908712714,149.698693794086,165.551328318224,165.551328318224
35:23.643,0,0.01,0.03,-0.03,-0.04,0.07,0,0,159.834643121976,143.734883581112,149.5913584505,165.463117253716,165.463117253716
35:23.652,0,0,0,0.01,0.04,0.26,0,-0.03,159.82922449925,143.660680035082,149.48402310691,165.374906189205,165.374906189205
35:23.662,-0.02,0,0.03,0,-0.03,-0.07,-0.05,-0.02,159.823805876524,143.586476489053,149.376687763324,165.286695124696,175.782725721833
35:23.705,0,0.02,-0.06,0.01,-0.04,-0.35,-0.01,-0.01,159.747409180507,143.59650757182,149.461410265654,165.319040171305,165.319040171305
35:23.720,0.01,0.01,0.04,0.01,0.02,0.02,0.04,0.02,159.67101248449,143.606538654586,149.54613276798,165.351385217915,165.351385217915
35:23.736,-0.02,-0.02,-0.03,-0.04,0.02,0.43,0.11,0,159.594615788474,143.616569737353,149.630855270307,165.383730264523,165.383730264523
35:23.747,0,-0.04,-0.07,0.02,0.05,0.1,0.02,0.01,159.518219092457,143.62660082012,149.715577772637,165.416075311134,165.416075311134
35:23.757,0,-0.04,-0.07,0.02,0.05,0.1,0.02,0.01,159.317554325255,143.840653609222,149.771657931771,165.364610968897,165.364610968897
35:23.767,0,-0.02,-0.09,-0.01,0,0.21,-0.02,0.01,159.11688955805,144.054706398323,149.827738090906,165.31314662666,165.31314662666
35:23.806,-0.01,0,-0.01,0,0,0.09,-0.08,-0.02,159.245361062722,144.012275335649,149.804608497396,165.297165411006,165.297165411006
35:23.816,-0.01,0,-0.01,0,0,0.09,-0.08,-0.02,159.373832567388,143.969844272977,149.781478903888,165.281184195353,165.281184195353
35:23.826,0,-0.01,0.01,-0.03,-0.06,-0.51,0.03,-0.01,159.502304072063,143.927413210302,149.758349310377,165.265202979699,165.265202979699
35:23.837,0,-0.01,0.01,-0.03,-0.06,-0.51,0.03,-0.01,159.630775576738,143.884982147628,149.735219716868,165.249221764045,165.249221764045
