time,currentData_1,currentData_2,currentData_3,currentData_4,currentData_5,currentData_6,currentData_7,currentData_8
12:25:17.533,0,0,0.01,0,0,0,0.01,0
12:25:17.942,-0.01,0,-0.01,0,0,-0.02,0,-0.01
12:25:17.958,0,0,0,-0.01,0,0.01,0,0
12:25:17.976,0,-0.01,-0.01,0,0,0,-0.01,0
12:25:17.987,0,-0.01,-0.01,0,0,0,-0.01,0
12:25:17.999,0,0,0,0,-0.01,0,0,0
12:25:18.047,0,0,0.02,-0.02,0,0.01,0,0
12:25:18.060,0,0,-0.03,0,0,-0.01,0,0
12:25:18.072,0,0,-0.03,0,0,-0.01,0,0
12:25:18.085,0,0.01,0,0,-0.01,0,-0.01,0
12:25:18.096,0,0,0,0,0.02,0,0,-0.01
12:25:18.108,0.01,0,0.01,0.01,0,0,0,0.01
12:25:18.156,0,0,-0.01,0,0,0,0,0.01
12:25:18.169,0,0,-0.01,0,0,0,0,0.01
12:25:18.181,-0.01,-0.01,-0.01,0,0,0.01,-0.01,0
12:25:18.191,-0.01,-0.01,-0.01,0,0,0.01,-0.01,0
12:25:18.202,0,-0.01,-0.01,0,-0.03,-0.01,0,0
12:25:18.213,0,0,0,-0.01,0,-0.01,0.01,0
12:25:18.260,-0.02,0,0,0,0,0,0,0
12:25:18.271,-0.02,0,0,0,0,0,0,0
12:25:18.281,0,0,0,0,0,0,0,0
12:25:18.293,0,0,0,0,0,0,0,0
12:25:18.305,-0.02,-0.01,0,0,0,-0.01,-0.01,-0.01
12:25:18.319,-0.01,0,-0.02,-0.01,0,0,0,0
12:25:18.330,-0.02,0,0,0,0,-0.01,0,-0.01
12:25:18.380,0,0,-0.03,0,-0.01,0,-0.02,-0.02
12:25:18.393,0,0,0,0,0,-0.02,-0.01,0
12:25:18.408,-0.01,-0.01,0.01,-0.01,0,0,0,0.01
12:25:18.418,0,-0.01,0.01,-0.01,0,0,0.01,0.01
12:25:18.428,0,-0.01,0.01,-0.01,0,0,0.01,0.01
12:25:18.486,0.01,0,0,-0.01,-0.01,0,-0.01,0
12:25:18.500,-0.01,0,0,0,-0.01,0,0,-0.01
12:25:18.515,0.01,0,0,0,0,-0.01,-0.01,0
12:25:18.528,0.01,0,0,0,0,-0.01,-0.01,0
12:25:18.538,0,0,0,0,0,0,0,-0.01
12:25:18.587,0,0,0,0,0,-0.01,0,-0.01
12:25:18.603,0,0,-0.02,-0.02,-0.01,0,0.01,0
12:25:18.618,-0.01,-0.02,0,0,-0.03,0,0,0
12:25:18.629,0,-0.01,-0.01,-0.01,0,0,0.01,0.01
12:25:18.681,0,0,0,-0.01,0,0,0,0
12:25:18.698,0,0,-0.01,0,0.01,-0.01,0,-0.01
12:25:18.711,0,0,0,-0.01,0,-0.01,0,-0.01
12:25:18.725,0,0,0,-0.01,0,-0.01,0,-0.01
12:25:18.738,0,0,-0.02,0,0,0.01,0.01,0
12:25:18.751,-0.01,0,-0.02,0,0,0,-0.02,-0.01
12:25:18.815,0,0,-0.03,0,-0.01,-0.01,0,0
12:25:18.830,0,0,0,0.01,0,0,-0.01,0
12:25:18.855,0,0,-0.01,0,0,0,0,0
12:25:18.930,0,0,-0.01,-0.02,-0.02,-0.01,0,-0.01
12:25:18.946,0,-0.01,0,0,0,0,-0.01,0
12:25:18.965,0,-0.01,0.01,0,0.01,-0.01,-0.01,0
12:25:19.014,0.01,0,0,0,0,0,-0.01,0
12:25:19.031,0,0,0,0,0,0,0,0
12:25:19.048,0,-0.01,0,0,0,0,0,0
12:25:19.064,0,0,-0.01,0.01,-0.01,0,0,0
12:25:19.077,0,0,0,-0.01,0,-0.02,-0.01,0
12:25:19.128,0,0,0,0,-0.01,0,0,0
12:25:19.139,-0.01,-0.02,0.01,0,0,0,-0.01,0
12:25:19.151,-0.01,0.01,-0.01,-0.02,0,-0.02,-0.01,0
12:25:19.164,-0.01,0,-0.01,0,-0.02,0.01,0,0
12:25:19.175,-0.01,0,-0.01,0,-0.02,0.01,0,0
12:25:19.225,-0.01,0,0,0,0,-0.01,0,0
12:25:19.239,-0.01,0,0,0,0.01,-0.01,0,-0.01
12:25:19.254,-0.01,0,0,-0.01,0.01,0,-0.01,0
12:25:19.273,0,0,0,0,0,0,0,-0.02
12:25:19.334,0,-0.02,0,-0.01,0,0,0,0
12:25:19.355,0,-0.02,0,-0.01,0,0,0,0
12:25:19.372,0,0,0,0,0,0,0,0.01
12:25:19.450,0,-0.01,-0.01,0,0,-0.01,0,0
12:25:19.468,-0.01,-0.01,0,0,-0.01,0,0.01,0
12:25:19.517,0,0,-0.01,0,0,0,-0.01,-0.01
12:25:19.531,-0.01,0,0,0,0,-0.01,0,0
12:25:19.543,0,0,-0.02,0,-0.01,0.01,0,-0.01
12:25:19.553,0,0,0.01,0,-0.01,0,0,0
12:25:19.563,0,0,0,0,0,-0.01,0,0
12:25:19.573,0,0,0,0,0,-0.01,0,0
12:25:19.581,0,-0.02,-0.01,0,0,0,0,0
12:25:19.591,0,0,0,0,-0.01,0,0,0
12:25:19.639,0,0,-0.01,0,0,0,0,0.01
12:25:19.651,0,0,-0.01,0,0,0,0,0.01
12:25:19.663,-0.01,0,-0.02,0,0,0,0,-0.01
12:25:19.674,-0.01,0,-0.02,0,0,0,0,-0.01
12:25:19.685,0,0,0,0,0,0,0,0
12:25:19.696,0,0,0,0,-0.02,-0.02,0,0
12:25:19.705,0,0,0,0,-0.02,-0.02,0,0
12:25:19.747,0,-0.02,-0.01,-0.01,-0.01,0,0,-0.01
12:25:19.772,-0.01,0,0,0,-0.01,-0.02,-0.01,-0.01
12:25:19.786,0,0,0,0,0,0,-0.01,0
12:25:19.800,0,0,-0.01,0,0,0,0,0
12:25:19.811,0,-0.02,0,0,0,0,0,0
12:25:19.863,0,0,0,-0.01,0,0,0,0
12:25:19.875,0,0.01,-0.01,0,-0.02,0,0,0
12:25:19.889,-0.01,0.01,-0.01,0,-0.02,0,0,0
12:25:19.901,-0.01,0.01,-0.01,0,-0.02,0,0,0
12:25:19.914,0,0,0,0,0,0,-0.01,0
12:25:19.925,0,0,0,0,0,-0.01,0,0
12:25:19.976,0,0,0,0,0,-0.01,0,0
12:25:19.989,0,0,-0.01,-0.02,-0.02,0,0,-0.01
12:25:20.002,0,0,0,0,0,-0.01,-0.01,0
12:25:20.014,0,0,0,0,0,-0.01,-0.01,0
12:25:20.024,0,-0.02,0,0,-0.01,0,-0.01,0
12:25:20.100,-0.01,0,-0.01,0,0,0,-0.01,0
12:25:20.113,0,0,0.01,0,0,-0.02,0,0
12:25:20.123,0,0,-0.02,0,0,0,0,0.01
12:25:20.135,0,-0.01,0,-0.02,0,-0.01,0,-0.01
12:25:20.183,-0.01,0,0,0,-0.02,0,0,0
12:25:20.193,-0.01,0,0,0,-0.02,0,0,0
12:25:20.207,0,0,-0.01,0,0,0,0,0
12:25:20.221,0.01,0,0,0,0,0,-0.01,-0.01
12:25:20.234,-0.01,0,0,0,-0.01,0,-0.01,-0.01
12:25:20.246,-0.01,0,0,0.01,0,-0.01,-0.01,0
12:25:20.294,0,0.01,0.01,0,0,-0.01,0,0
12:25:20.310,0,0,0,0,-0.01,0,0,-0.01
12:25:20.325,-0.01,0,0,0,0,0,-0.01,0
12:25:20.341,0.01,0,0,-0.02,0,0,0,0
12:25:20.352,0,-0.02,-0.02,0,0,0,0.01,0
12:25:20.399,0,0,0,0,-0.01,0,0,0
12:25:20.412,0,0,0,-0.01,-0.01,0,0,0
12:25:20.422,0,-0.01,0,0,-0.01,-0.01,0,0
12:25:20.438,0,0,-0.01,0.01,-0.01,0,-0.03,0
12:25:20.450,0,0,-0.01,0.01,-0.01,0,-0.03,0
12:25:20.463,-0.01,0,0.01,-0.01,0.02,0,0,0
12:25:20.513,-0.01,0,-0.02,0,0,0,0,-0.01
12:25:20.523,0,-0.01,0,0,-0.01,0,0,0.01
12:25:20.533,0,0,-0.01,-0.01,0,0,0,0
12:25:20.545,0,0,0,-0.01,0,-0.01,0,-0.01
12:25:20.564,0,0,-0.01,-0.01,-0.01,-0.01,-0.01,0
12:25:20.576,0.01,-0.01,0,-0.01,-0.01,0,0,0
12:25:20.619,0,-0.01,0.07,0.01,-0.01,-0.01,-0.05,0
12:25:20.632,0,-0.01,0.07,0.01,-0.01,-0.01,-0.05,0
12:25:20.644,0,-0.01,-0.03,-0.01,0,0,0,0
12:25:20.656,0,-0.01,-0.03,-0.01,0,0,0,0
12:25:20.667,0,-0.01,-0.02,0,-0.01,-0.03,0,0.01
12:25:20.678,0,0.01,-0.04,0.01,0,0.01,0.02,0
12:25:20.723,0,0,-0.01,0,-0.01,0,0.01,0.01
12:25:20.735,0,0,-0.01,0,-0.01,0,0.01,0.01
12:25:20.750,0,-0.01,0.01,-0.02,0,0.01,0,0
12:25:20.763,-0.02,0,0,-0.01,0,0,0,0
12:25:20.774,-0.02,0,0,-0.01,0,0,0,0
12:25:20.784,0,0,-0.02,0,0,-0.01,0,-0.01
12:25:20.795,0,-0.02,0,0.01,0,0,0,-0.02
12:25:20.844,0,0,0,0,-0.01,0.01,0,0
12:25:20.858,0,0,-0.01,-0.01,0,0,0,-0.01
12:25:20.870,0,0,-0.04,0,0,0,0,0
12:25:20.883,0,0,-0.01,0,-0.01,0,0,0
12:25:20.896,0,0,-0.01,0,-0.01,0,0,0
12:25:20.966,-0.01,0,0.08,0,0,0,0,0
12:25:20.982,-0.01,-0.01,-0.07,0,0,-0.01,-0.01,0
12:25:21.000,0,-0.02,0,-0.02,0,0,0.01,-0.01
12:25:21.065,-0.01,-0.02,-0.01,0,-0.01,0.01,-0.01,0
12:25:21.076,-0.01,-0.02,-0.01,0,-0.01,0.01,-0.01,0
12:25:21.087,0,0,0.01,0,0,-0.02,-0.01,0
12:25:21.102,0,-0.01,-0.02,0,-0.01,0,0,-0.01
12:25:21.113,0,-0.01,-0.02,0,-0.01,0,0,-0.01
12:25:21.123,0,0.01,-0.01,0,0,-0.01,0,0
12:25:21.174,0,-0.01,0,0,-0.01,0,0.01,-0.01
12:25:21.187,0,0,0,-0.01,0,0,-0.01,0.01
12:25:21.198,0,0,0,-0.01,0,0,-0.01,0.01
12:25:21.209,-0.01,-0.01,-0.01,0,0,-0.02,0,-0.01
12:25:21.220,-0.01,0,-0.01,0,0,0,-0.01,0
12:25:21.232,0,-0.01,0,0,0,0.01,0,0
12:25:21.280,0,-0.01,-0.05,-0.01,0,-0.01,0,0
12:25:21.292,0,-0.01,0,0,-0.01,0,0,0
12:25:21.304,0,0,0,-0.01,-0.01,-0.02,0,0
12:25:21.314,0,0,0,-0.01,-0.01,-0.02,0,0
12:25:21.323,0,0,-0.01,0,0,0,0,0
12:25:21.334,0,0,-0.01,0,-0.01,0,-0.01,0
12:25:21.377,0,0,0,0,0,0,-0.01,0
12:25:21.392,0.01,-0.01,0,0,-0.01,-0.01,0,0
12:25:21.403,0,-0.01,-0.01,-0.01,-0.01,0,0,0
12:25:21.415,0,-0.01,-0.01,-0.01,-0.01,0,0,0
12:25:21.425,0,-0.01,0,0,0,0,-0.01,-0.02
12:25:21.434,0,-0.01,0,0,0,0,-0.01,-0.02
12:25:21.443,-0.01,0,0,0,0.02,0,0.01,0
12:25:21.485,-0.01,0,0.01,0,0,0,0,0
12:25:21.496,-0.01,0,0.01,0,0,0,0,0
12:25:21.509,-0.01,-0.01,0,0,0,0,0,-0.02
12:25:21.521,0,-0.01,0,-0.01,-0.01,0,0,0
12:25:21.532,-0.01,0,0,-0.01,0,-0.01,0,0
12:25:21.544,0,0,-0.01,0,0,0,0,0
12:25:21.555,0,0,-0.01,0,0,0,0,0
12:25:21.597,0.01,0,0,0,0,0,0,0
12:25:21.609,0,0,-0.01,-0.02,-0.01,-0.01,0,0
12:25:21.622,-0.01,0,0,0.02,0,-0.01,0,0
12:25:21.632,-0.01,0,0,0.02,0,-0.01,0,0
12:25:21.642,-0.01,0,0,0.02,0,-0.01,0,0
12:25:21.652,0,0,0,0,-0.01,0,-0.01,0
12:25:21.664,-0.01,-0.01,0,0,0,0,-0.01,0
12:25:21.713,0,0,0,0,-0.01,0,0,0
12:25:21.724,0.01,0,-0.01,0,0,0,-0.01,0
12:25:21.737,-0.01,0,0,0,0,0,0.01,-0.01
12:25:21.747,0,-0.02,0,-0.02,0,0,0,0
12:25:21.757,0,-0.02,0,-0.02,0,0,0,0
12:25:21.766,-0.02,-0.01,0,0,0,0,0,0
12:25:21.778,-0.01,0,0,0,0,0,0.01,-0.01
12:25:21.823,0,-0.01,-0.01,-0.01,0,-0.01,-0.01,0
12:25:21.835,-0.01,0,-0.02,0,-0.01,0,-0.01,-0.01
12:25:21.846,0,0,-0.01,0,0,0,0,0
12:25:21.856,0,0,-0.01,0,0,0,0,0
12:25:21.865,-0.01,-0.01,0,0,0,0,-0.01,0
12:25:21.877,-0.01,-0.01,0,0,0,0,-0.01,0
12:25:21.887,0,-0.01,0,0,0,0,0,-0.01
12:25:21.930,0,0,0,0,0,0,0,0
12:25:21.942,0,0,0,0,0,0,0,0
12:25:21.955,-0.01,0,0,-0.01,0,-0.01,0,-0.02
12:25:21.965,0,-0.01,0,0,0,-0.01,0,0
12:25:21.975,0,-0.01,0,0,0,-0.01,0,0
12:25:21.987,0,-0.01,0,0,0,-0.01,0,0
12:25:21.997,0,0,-0.02,-0.01,0,0,-0.01,0
12:25:22.049,0,-0.01,0,0,0,0,0,-0.01
12:25:22.061,0,-0.01,0,0,0,0,0,-0.01
12:25:22.072,-0.01,0,0,-0.01,-0.01,-0.01,0,0
12:25:22.085,-0.01,0,-0.01,0,0,0,0,0
12:25:22.095,0,0,0,0,0,0,0,0
12:25:22.106,0,0,-0.01,0,-0.01,0,0,0
12:25:22.154,-0.02,-0.01,0,0,0.01,0,0,0
12:25:22.165,0,0,0,0,0,0,0,0
12:25:22.177,0,0,0,0,0,0,0,0
12:25:22.188,0,0,0,0,-0.01,-0.01,-0.01,0
12:25:22.200,0,-0.02,0,0,-0.01,0,0,0.01
12:25:22.211,0,0,0,0,0.01,0,-0.02,0
12:25:22.254,0,0,-0.01,0,0,0,0,-0.01
12:25:22.264,0,0,0,-0.01,0,-0.01,0,0
12:25:22.274,0,-0.01,0,-0.01,-0.01,0,0,0
12:25:22.285,-0.01,0,0,0,0.02,0,0,0
12:25:22.294,-0.01,0,0,0,0.02,0,0,0
12:25:22.307,0,0,-0.01,0,-0.01,0,-0.01,0
12:25:22.317,-0.01,0,-0.01,0,0,0,-0.04,0
12:25:22.326,0,-0.01,-0.01,0,0,-0.02,0,0
12:25:22.373,0,0.01,0.01,-0.02,-0.02,0,0,0
12:25:22.385,-0.02,-0.02,-0.01,-0.01,-0.01,-0.01,-0.01,-0.01
12:25:22.395,-0.02,-0.02,-0.01,-0.01,-0.01,-0.01,-0.01,-0.01
12:25:22.404,0,0,0,0,0,0,0,0
12:25:22.414,0,0,0,0,0,0,0,0
12:25:22.428,-0.01,0,-0.01,-0.01,-0.02,0.01,0,0
12:25:22.472,-0.02,0,-0.01,0,0,0.02,0,-0.01
12:25:22.487,0,-0.01,-0.01,-0.01,-0.02,-0.01,-0.01,-0.01
12:25:22.500,-0.01,-0.01,-0.01,0,-0.02,0,0,0
12:25:22.510,0,-0.01,-0.01,0,0,0,0.01,0
12:25:22.520,0,-0.01,-0.01,0,0,0,0.01,0
12:25:22.529,0,0,0,-0.01,-0.01,0,0,0
12:25:22.542,-0.01,0,0,-0.02,0,0,-0.01,-0.01
12:25:22.587,-0.02,0,0,0,-0.01,-0.02,-0.01,0
12:25:22.598,-0.02,0,0,0,-0.01,-0.02,-0.01,0
12:25:22.613,0,0,0,-0.02,-0.01,-0.01,-0.01,0
12:25:22.626,-0.02,0,0,0,-0.01,-0.01,-0.01,0
12:25:22.636,0,-0.01,0,0,0.02,-0.01,0,-0.02
12:25:22.646,0,0,-0.01,-0.02,0,0,-0.01,-0.01
12:25:22.654,0,-0.02,0.01,0,-0.01,0,0,-0.02
12:25:22.705,0,0,0,-0.02,-0.02,-0.01,0,0
12:25:22.715,0,0,0,0,0,0,0,0
12:25:22.727,0,-0.01,-0.01,-0.01,0,0,-0.01,-0.01
12:25:22.743,0,-0.01,-0.01,-0.01,0,0,-0.01,-0.01
12:25:22.757,0,0,0,0.01,0,0,0,-0.01
12:25:22.801,0,0,0,0,0,0,0,0
12:25:22.815,0,0,0,-0.01,0,0,0.01,0
12:25:22.826,-0.02,0,0,0,0,0,0,-0.01
12:25:22.839,0,0,0,0,-0.01,0,-0.01,0
12:25:22.852,-0.01,0,-0.02,0,-0.01,0,0,0
12:25:22.867,0,0,0,0,0,-0.02,0.01,0
12:25:22.912,0,-0.01,0,-0.01,0.01,0,0,0
12:25:22.926,0,0,-0.01,0,0,-0.01,0,0.01
12:25:22.939,0,0,0,-0.01,0,0,0,-0.01
12:25:22.952,-0.01,-0.03,0,-0.01,-0.01,-0.01,0,-0.01
12:25:22.966,0,0,0,0,0,-0.01,0,-0.01
12:25:22.980,0,0,0,0,-0.01,0,0,0
12:25:23.037,0,-0.03,0,0,-0.01,-0.01,-0.01,0
12:25:23.057,0,0,-0.01,0,0,0,-0.01,0
12:25:23.068,0,-0.01,-0.02,-0.01,-0.01,0,0,0
12:25:23.080,0,-0.01,-0.02,-0.01,-0.01,0,0,0
12:25:23.143,-0.01,0,0,-0.01,-0.01,0,-0.01,0
12:25:23.155,0,0.01,-0.01,-0.03,0,0,0.03,0
12:25:23.171,0,-0.01,0,0,0,-0.01,-0.01,0
12:25:23.182,-0.02,0,-0.01,-0.01,0,0.01,0,0
12:25:23.195,0,0,0,0,0,0,0.01,0
12:25:23.242,0,0,-0.01,-0.01,0,0,0,0
12:25:23.253,-0.01,0,0,0.01,0,0,0,0
12:25:23.262,-0.01,0,0,0.01,0,0,0,0
12:25:23.273,0,0,0,0,0,0,0,0
12:25:23.283,0,0,0,0,0,0,0,0
12:25:23.296,0,-0.01,0,-0.01,0,0,0,0
12:25:23.308,0,0,0,0,-0.01,0.01,-0.02,0
12:25:23.351,-0.01,0.01,0,0,0,0,0,0
12:25:23.366,0,-0.01,-0.02,0,0,0,0,-0.01
12:25:23.380,0,-0.01,0,0,-0.02,0,0,-0.01
12:25:23.390,0,0,0.01,-0.02,0,-0.02,0,0
12:25:23.399,0,0,0.01,-0.02,0,-0.02,0,0
12:25:23.408,-0.01,0,-0.01,0,0,0,0,0
12:25:23.456,0,0,-0.01,0,0,0,0.02,0
12:25:23.466,0,0,0,-0.02,0,-0.01,0,0
12:25:23.476,0,0,-0.01,0,0,-0.01,0,0
12:25:23.491,0,-0.01,-0.01,0,0,0,0,0
12:25:23.503,0,-0.01,0,0,0,-0.01,0,0.01
12:25:23.513,-0.01,-0.01,0.01,0,-0.01,0,-0.01,-0.01
12:25:23.523,-0.01,-0.01,0.01,0,-0.01,0,-0.01,-0.01
12:25:23.567,0,0,0,0,0,0,0,0
12:25:23.578,-0.01,-0.01,0,-0.01,0,0,0,0
12:25:23.588,0,0,0,0,0,0,-0.01,0
12:25:23.598,0,0,0,0,0,0,-0.01,0
12:25:23.611,0,0,0,-0.01,0,0,-0.02,-0.01
12:25:23.623,-0.01,0,0,-0.01,0,0,-0.01,-0.01
12:25:23.636,-0.01,0.01,-0.01,0,0,0,-0.01,0
12:25:23.683,0,0,0,0,-0.02,0,-0.01,0
12:25:23.695,-0.01,0,0,0,0,0,0,0
12:25:23.707,0,0,0,0,0,-0.02,0,-0.01
12:25:23.720,0,0,0,0,0,-0.02,0,-0.01
12:25:23.731,0,-0.01,0.01,0,0,0,-0.01,0
12:25:23.742,0,0,0.01,-0.01,0,0,0,0
12:25:23.791,0.02,-0.01,-0.01,-0.01,0,0,0,0.01
12:25:23.802,0.02,-0.01,-0.01,-0.01,0,0,0,0.01
12:25:23.814,0,0,-0.01,0,-0.01,0,-0.02,-0.01
12:25:23.824,0,0,-0.01,0,-0.01,0,-0.02,-0.01
12:25:23.833,-0.01,0,-0.01,0,0,-0.01,-0.02,-0.01
12:25:23.843,-0.01,0,-0.01,0,0,-0.01,-0.02,-0.01
12:25:23.851,0,-0.02,0,-0.01,0,0,0,0
12:25:23.903,-0.01,-0.02,0,0,0,-0.01,0,0
12:25:23.915,-0.01,0,-0.01,0,0,0,0,-0.01
12:25:23.930,-0.01,0,-0.01,0,0,0,0,-0.01
12:25:23.944,0,0,0,-0.02,-0.02,0.01,0,0
12:25:23.955,-0.02,0,0.01,0,0,0,0,0
12:25:23.965,0,-0.01,-0.02,-0.01,-0.01,-0.01,0,-0.01
12:25:24.008,0,0,0.01,0,-0.01,-0.01,0,0
12:25:24.018,0,0,0.01,0,-0.01,-0.01,0,0
12:25:24.029,0,-0.01,0,0.01,0.01,0,0,0.02
12:25:24.040,0,0,-0.01,-0.01,0,-0.01,0,0
12:25:24.051,0,0,0,0,0,0.01,0,0
12:25:24.062,0,0,0,0,0,0.01,0,0
12:25:24.072,-0.01,0,-0.01,0,-0.01,-0.02,-0.01,-0.01
12:25:24.119,0,0,0,0.01,0,0,0.02,-0.01
12:25:24.130,-0.01,-0.01,0,-0.02,0,0,0,0
12:25:24.144,-0.01,-0.01,0,-0.02,0,0,0,0
12:25:24.157,0,0,-0.02,0,0,0,0,-0.01
12:25:24.169,-0.01,-0.02,-0.01,0,-0.02,0,0,0.01
12:25:24.181,-0.01,0,0.01,0,0,-0.01,-0.01,-0.01
12:25:24.225,0,0,-0.02,-0.01,0,0,0,0
12:25:24.238,-0.01,0,0,0,0,0.01,-0.01,0
12:25:24.255,0.01,0,0,-0.01,0,-0.01,0,-0.01
12:25:24.268,0.01,0,0,-0.01,0,-0.01,0,-0.01
12:25:24.283,0,-0.01,-0.01,0,0,0,-0.01,-0.01
12:25:24.337,0,-0.01,-0.02,-0.01,0,0,0,-0.01
12:25:24.348,0,0,0,-0.01,0,0,0,0
12:25:24.359,0,0,0,-0.01,0,0,0,0
12:25:24.373,0,-0.01,-0.01,0,-0.01,0,0,0
12:25:24.387,0,-0.01,-0.01,0,-0.01,0,0,0
12:25:24.399,-0.03,0,0,0,0,0,-0.01,-0.01
12:25:24.446,0,0,-0.01,0,0,0,-0.01,0
12:25:24.458,0,0,-0.01,0,-0.02,0.01,0,0
12:25:24.469,0,0,-0.01,0,-0.02,0.01,0,0
12:25:24.479,0,0,-0.01,0,0,0,-0.01,0
12:25:24.489,0,0,0,-0.01,-0.01,-0.01,0,-0.01
12:25:24.501,0,0,0,-0.01,-0.01,-0.01,0,-0.01
12:25:24.544,-0.01,-0.02,0,0,0,-0.01,-0.02,0
12:25:24.556,-0.01,-0.01,0,-0.01,0,0,0,0
12:25:24.571,-0.01,0,0,0,-0.01,-0.01,-0.01,-0.01
12:25:24.581,-0.01,0,0,0,-0.01,-0.01,-0.01,-0.01
12:25:24.593,0,0,0,-0.01,0,-0.02,0,0
12:25:24.604,0,0,0,-0.01,0,-0.02,0,0
12:25:24.615,0,-0.01,0.01,0,0,-0.01,0,0
12:25:24.662,-0.01,-0.01,0,0,-0.01,0,0,-0.01
12:25:24.675,0.01,0,0,0,0.01,-0.02,-0.02,0
12:25:24.686,0.01,0,0,0,0.01,-0.02,-0.02,0
12:25:24.698,0,-0.01,0,0,0,0,0,0
12:25:24.709,0,-0.01,0,0,0,0,0,0
12:25:24.718,0,0,0,0,-0.01,0,-0.02,0
12:25:24.731,0,-0.01,0,0,0,0,-0.01,0
12:25:24.775,-0.01,0,0,-0.01,-0.02,0,0,0
12:25:24.788,-0.01,0,0,0,-0.01,-0.01,0,0
12:25:24.802,0,-0.01,0,0,0,0,-0.01,0
12:25:24.812,-0.01,0,0,0,0,-0.01,0,0
12:25:24.823,-0.01,0,0,0,0,-0.01,0,0
12:25:24.834,0,-0.01,-0.01,-0.02,-0.02,0.01,0,0
12:25:24.877,0,0,0,-0.01,0.01,0,0,-0.02
12:25:24.887,0,0,0,-0.01,0.01,0,0,-0.02
12:25:24.898,0,0,0,-0.01,0,0,0,-0.02
12:25:24.914,0,0,0,0,-0.01,0,-0.01,0.01
12:25:24.929,-0.01,-0.01,-0.02,0,-0.01,-0.01,0.01,0
12:25:24.940,0,-0.01,-0.01,0.01,-0.01,-0.02,-0.02,0
12:25:24.950,0,0,0,0,-0.01,0,0,0
12:25:24.995,0,-0.01,0,0,0,0,-0.01,0
12:25:25.007,0,-0.01,0,0,0,0,-0.01,0
12:25:25.020,-0.01,0,0,0,0,0,0,0
12:25:25.031,0,0.01,0,0,0,0,0,-0.01
12:25:25.042,0,-0.01,-0.01,-0.01,0,0,0,-0.01
12:25:25.054,0.01,0,0,0.01,-0.01,0,0.01,0
12:25:25.111,-0.01,0.01,-0.01,0,0,0,-0.01,-0.01
12:25:25.120,-0.01,0.01,-0.01,0,0,0,-0.01,-0.01
12:25:25.132,-0.01,0,0,0,0,0,0,0
12:25:25.144,-0.01,0,0,0,0,0,0,0
12:25:25.154,0,0,0,0,0.01,0,-0.01,0
12:25:25.164,0,0,0,0,-0.01,0,0,0
12:25:25.207,0,0,0,-0.02,-0.01,0,0,0
12:25:25.219,-0.01,0,-0.01,0,-0.01,0,0,0
12:25:25.230,0,-0.02,0,0,0,0,0,0
12:25:25.242,0,-0.02,0,0,0,0,0,0
12:25:25.255,0,0,0,0,0,-0.01,-0.02,0
12:25:25.265,0,-0.01,-0.01,-0.01,0,0,0,-0.01
12:25:25.275,0,0,-0.01,0,0,0,0,0
12:25:25.317,-0.01,-0.02,0,-0.01,0,0,0,0
12:25:25.327,-0.01,0,-0.01,-0.02,0,0,0,0
12:25:25.339,0,0,-0.02,0,-0.01,0,0,-0.01
12:25:25.350,0,0,-0.01,0,0.01,0,0,0
12:25:25.365,0,0,-0.01,0,0.01,0,0,0
12:25:25.380,0,0,-0.02,0,-0.01,-0.01,-0.01,0
12:25:25.445,0,0,0,0,0,0,-0.01,0
12:25:25.458,0,0,0,0,-0.01,0,0,0
12:25:25.469,0,-0.01,-0.01,-0.01,0,-0.01,-0.01,0
12:25:25.482,-0.01,0,0,0,-0.02,0,0,0
12:25:25.498,0,0,0,0,-0.01,0,0,-0.01
12:25:25.556,0,-0.01,0,-0.01,0,-0.01,-0.01,0
12:25:25.570,0,-0.01,0,-0.01,0,-0.01,-0.01,0
12:25:25.582,0,0,-0.01,-0.01,0,-0.01,-0.02,0
12:25:25.594,0,0,-0.01,-0.01,0,-0.03,-0.04,-0.01
12:25:25.604,-0.01,0,0,-0.01,0,-0.02,-0.01,-0.01
12:25:25.664,-0.01,-0.01,-0.01,0,0,0.01,0.01,0
12:25:25.677,0,-0.01,-0.01,0,-0.01,-0.01,-0.01,0
12:25:25.692,0,-0.01,-0.01,0,-0.01,-0.01,-0.01,0
12:25:25.706,0,0.01,0,0,-0.01,0,0,0.01
12:25:25.718,0,-0.01,-0.01,-0.02,0,0,0.02,0
12:25:25.766,-0.02,0,0,0,0,-0.01,-0.01,0
12:25:25.777,0,-0.01,0,-0.01,-0.02,0,0,0
12:25:25.789,0,-0.01,0,-0.01,-0.02,0,0,0
12:25:25.800,0,0,0,0,0,-0.02,-0.01,0
12:25:25.810,0,0,0,0,0,-0.02,-0.01,0
12:25:25.821,-0.01,0,0,0,0,0,0,0
12:25:25.868,0,0.01,0,0,-0.01,-0.02,-0.02,0
12:25:25.878,0,-0.02,-0.01,-0.02,0,0,0.01,-0.01
12:25:25.888,-0.01,0,0.01,0,0,0,0.01,0
12:25:25.899,0,0,0,-0.01,0,0,0,0
12:25:25.910,0,0,0,-0.01,0,0,0,0
12:25:25.920,-0.01,-0.01,0.01,0,0,0,0,0
12:25:25.930,-0.01,-0.01,0.01,0,0,0,0,0
12:25:25.974,0,0.04,0,0,0,0,0.03,0
12:25:25.985,0,0.04,0,0,0,0,0.03,0
12:25:25.998,-0.01,-0.02,0,-0.01,0,-0.01,0,0.01
12:25:26.010,0,0,0,-0.01,-0.02,0,0.09,0.01
12:25:26.022,0,-0.03,0,0,-0.02,-0.01,-0.04,-0.01
12:25:26.034,0,-0.02,0,0,0,0,0.02,0
12:25:26.085,-0.01,0,-0.01,-0.01,0,-0.03,-0.03,-0.02
12:25:26.100,0,0,0,0,0,0.02,0,0.01
12:25:26.115,0,0,-0.01,-0.02,-0.01,0,0,-0.01
12:25:26.127,0,0,-0.01,-0.02,-0.01,0,0,-0.01
12:25:26.137,0,-0.01,-0.02,0,0.01,-0.01,-0.01,0
12:25:26.150,0,-0.02,0,-0.01,0,0,0,0
12:25:26.195,-0.01,-0.01,-0.02,-0.01,0,0.01,0.02,0
12:25:26.206,0,0,0,0,-0.02,0,0.01,0
12:25:26.219,-0.01,-0.02,0,0,-0.01,0,-0.03,0
12:25:26.228,-0.01,-0.02,0,0,-0.01,0,-0.03,0
12:25:26.239,0,0,0,0,0,-0.04,-0.02,0
12:25:26.250,0,-0.01,-0.01,0,-0.03,0.03,0,-0.02
12:25:26.259,0,-0.01,-0.02,0,-0.01,0.01,-0.04,0
12:25:26.303,0,0.01,0,-0.02,0,-0.06,-0.06,0
12:25:26.313,0,0.01,0,-0.02,0,-0.06,-0.06,0
12:25:26.323,0,0,-0.01,0,0,0.03,0,-0.01
12:25:26.336,0,-0.01,0,0,0,-0.01,0.04,-0.01
12:25:26.347,0,-0.01,0,0,0,-0.01,0.04,-0.01
12:25:26.359,-0.02,-0.01,0.01,-0.01,0,0,0,-0.02
12:25:26.369,0,0,0,0,-0.01,0,0,0
12:25:26.411,0,0,0,0,-0.01,0,-0.02,-0.01
12:25:26.422,-0.01,-0.01,-0.01,0,-0.02,0,0.01,0
12:25:26.434,-0.01,-0.01,-0.01,0,-0.02,0,0.01,0
12:25:26.446,-0.01,-0.02,-0.01,0,0,0,0,0
12:25:26.459,0,0,0,0,0,-0.01,0,-0.01
12:25:26.469,0,0,0,0,0,-0.01,0,-0.01
12:25:26.479,0,0,0,0,-0.01,-0.01,0,0
12:25:26.524,0,0,0.02,0,0,0,-0.02,-0.01
12:25:26.535,0,-0.01,-0.01,-0.01,0.01,0,0,0
12:25:26.547,0,-0.01,-0.01,-0.01,0.01,0,0,0
12:25:26.557,0,0.01,0,-0.01,-0.01,-0.01,-0.05,-0.01
12:25:26.570,0,0.01,0,-0.01,-0.01,-0.01,-0.05,-0.01
12:25:26.581,0,-0.02,-0.01,-0.01,0,0,0,0
12:25:26.634,0,0,-0.01,0,-0.02,0,-0.03,-0.02
12:25:26.644,0.01,0,0,0,-0.01,0,0.04,0
12:25:26.657,-0.01,0.01,-0.01,-0.01,0,0.01,0,0.01
12:25:26.668,-0.01,0.01,-0.01,-0.01,0,0.01,0,0.01
12:25:26.679,0,-0.01,-0.01,-0.01,0,-0.03,-0.03,0
12:25:26.690,0,-0.01,-0.01,-0.01,0,-0.03,-0.03,0
12:25:26.739,0,0,0,0,0,-0.01,0,0
12:25:26.751,-0.01,0,0,-0.01,0,0,0.01,-0.02
12:25:26.761,0,-0.02,0,0,0,0,-0.03,0
12:25:26.772,0,-0.02,0,0,0,0,-0.03,0
12:25:26.782,0,0,0,0,-0.01,0.01,-0.03,0
12:25:26.794,0,0,0,0,-0.01,0.01,-0.03,0
12:25:26.805,0,0,0.01,-0.01,-0.01,0,0.02,0
12:25:26.851,0,0.01,0,0,0,0,-0.01,-0.01
12:25:26.863,0,0,-0.02,-0.02,0,0.01,0,0
12:25:26.874,0,0,-0.02,-0.02,0,0.01,0,0
12:25:26.884,0,-0.01,0,0,0,-0.01,0.01,-0.01
12:25:26.894,0,-0.01,0,0,0,-0.01,0.01,-0.01
12:25:26.906,0,0,0,0,-0.01,0,-0.01,-0.01
12:25:26.953,0,0,0,-0.01,-0.02,0,0,0
12:25:26.966,0,0,0,0,-0.01,-0.01,-0.03,0.02
12:25:26.978,0,0,0,0,0,0.01,0.02,0.01
12:25:26.990,-0.01,0,0,0,-0.01,0.01,-0.01,0
12:25:27.004,0,0,0,0,-0.01,0,0,-0.01
12:25:27.015,0,0,-0.01,0,0,-0.02,0,-0.02
12:25:27.026,0,0.01,0.01,0,0.01,0.01,0,0
12:25:27.069,0,0.01,0.01,0,0.01,0.01,0,0
12:25:27.080,0,-0.01,0,0,0,-0.13,-0.05,-0.02
12:25:27.089,0,-0.01,0,0,0,-0.13,-0.05,-0.02
12:25:27.099,0,0,0.01,0,0,0.15,0.06,0
12:25:27.112,0.01,0,0,0,0,-0.05,-0.02,0
12:25:27.124,-0.01,0,-0.02,-0.02,-0.02,0.05,-0.02,0
12:25:27.171,0,-0.02,0.01,-0.02,0,-0.03,-0.02,0
12:25:27.185,0,-0.02,0,0,0,-0.01,0.04,0
12:25:27.196,0,-0.01,0,0,-0.01,0,0.03,0
12:25:27.207,0,-0.01,0,0,-0.01,0,0.03,0
12:25:27.218,-0.02,0,-0.01,-0.01,-0.02,0.02,0.02,-0.03
12:25:27.231,-0.02,0,-0.01,-0.01,-0.02,0.02,0.02,-0.03
12:25:27.244,0,-0.02,0,-0.01,-0.02,0.17,-0.08,-0.01
12:25:27.302,0,0,0.01,-0.01,0,-0.11,-0.03,-0.02
12:25:27.314,0,0,0,0,-0.01,0.15,-0.04,-0.01
12:25:27.326,0,0,0,0,-0.01,0.15,-0.04,-0.01
12:25:27.337,0,0,-0.01,-0.01,0,0.12,0.01,0
12:25:27.391,0,0,0,0,0,-0.24,-0.03,-0.02
12:25:27.402,0,-0.01,-0.01,-0.01,0,-0.02,0,0
12:25:27.413,0,-0.01,-0.01,-0.01,0,-0.02,0,0
12:25:27.426,0,-0.01,0,0.01,0,0.01,0,0
12:25:27.439,-0.01,0,0.01,0,0,0.02,0.01,-0.03
12:25:27.448,-0.01,0,0.01,0,0,0.02,0.01,-0.03
12:25:27.458,0,-0.01,0.01,0,0,-0.15,-0.03,-0.01
12:25:27.502,0,0,0.01,0,0,0,0.03,-0.02
12:25:27.513,0,0,0.01,0,0,0,0.03,-0.02
12:25:27.524,0,0,-0.02,0,-0.01,0.12,-0.08,0
12:25:27.538,-0.01,0,0,0,-0.01,0.07,0,-0.01
12:25:27.550,0,0,-0.01,-0.01,-0.01,0.04,0.04,0
12:25:27.560,0,0,-0.01,0,0,0.38,-0.02,0
12:25:27.569,0,0,0,-0.02,-0.01,0.08,0.04,0.01
12:25:27.610,0,0,0,0.01,0.01,-0.26,-0.01,0
12:25:27.620,-0.02,0,0,0,0,-0.1,0.01,0
12:25:27.630,-0.02,0,0,0,0,-0.1,0.01,0
12:25:27.644,0,0,0,0,0,0.3,-0.01,0.02
12:25:27.665,0,0.01,-0.03,0,0,-0.13,0,-0.03
12:25:27.677,0,-0.02,0,-0.01,-0.02,0,0.02,0
12:25:27.727,0,0,-0.01,0,0.01,0.01,0.03,0.02
12:25:27.741,0,0,0,0,0,0.19,-0.01,-0.02
12:25:27.753,0,0,0,0,0,0.19,-0.01,-0.02
12:25:27.768,-0.01,-0.01,0,0,0,-0.08,-0.01,-0.01
12:25:27.780,0.01,0,-0.01,0,0,-0.15,-0.01,0
12:25:27.790,-0.01,0,0,-0.01,0.01,0.36,-0.01,0
12:25:27.838,0,0,0,-0.02,0,0.05,0.11,0
12:25:27.849,-0.01,0,0,0,0,-0.08,0,-0.02
12:25:27.858,0,0,-0.01,0,-0.02,0.27,0.08,-0.01
12:25:27.867,0,0,0,0,-0.01,-0.03,-0.02,-0.02
12:25:27.876,0,0,-0.02,0,0,-0.01,0,0.01
12:25:27.889,0,0,-0.02,0,0,-0.01,0,0.01
12:25:27.899,0,-0.01,0,0,-0.01,-0.04,-0.01,0
12:25:27.945,0,0,0,-0.02,0,0,-0.01,0.01
12:25:27.959,-0.01,0,0.01,0,-0.01,-0.1,0.06,0
12:25:27.970,-0.01,0,0.01,0,-0.01,-0.1,0.06,0
12:25:27.980,-0.01,0,0,-0.02,-0.01,0.11,-0.07,0.03
12:25:27.990,-0.01,-0.01,0,0,0,0.01,-0.06,-0.02
12:25:28.002,0,0,0,-0.01,0,-0.05,-0.01,-0.01
12:25:28.043,0,0,-0.02,-0.01,-0.02,0.26,-0.03,-0.03
12:25:28.054,0,0,-0.02,-0.01,-0.02,0.26,-0.03,-0.03
12:25:28.066,0,-0.01,0,0,0,-0.04,-0.01,-0.02
12:25:28.076,0,-0.01,0,0,0,-0.04,-0.01,-0.02
12:25:28.085,-0.01,0.01,0,0,-0.03,-0.3,-0.02,0.02
12:25:28.095,-0.01,0,0,0,0.01,0.03,-0.01,-0.01
12:25:28.107,0,0,0,-0.01,-0.02,0.12,0.04,0
12:25:28.151,0,0.01,-0.07,0,0,-0.26,-0.04,0
12:25:28.162,0.01,-0.02,0.01,0,0,0,0.01,-0.01
12:25:28.174,0.01,-0.02,0.01,0,0,0,0.01,-0.01
12:25:28.187,-0.01,-0.02,0.01,0,0,0.38,0.09,0.03
12:25:28.203,-0.02,0,0,-0.01,0,0.02,-0.21,0
12:25:28.216,-0.02,0,0,-0.01,0,0.02,-0.21,0
12:25:28.267,0,0,0.01,-0.03,0,0.05,0.03,0
12:25:28.278,0,0,0.01,-0.03,0,0.05,0.03,0
12:25:28.289,-0.01,-0.01,-0.02,-0.01,0.01,-0.13,-0.06,0
12:25:28.304,-0.02,-0.01,0,0,-0.01,-0.1,0,-0.02
12:25:28.316,-0.02,-0.01,0,0,-0.01,-0.1,0,-0.02
12:25:28.328,0,0,-0.01,-0.01,-0.02,0.35,0.04,0
12:25:28.375,0,0,0.01,0,-0.01,-0.06,0,0
12:25:28.389,0,0,-0.01,0,0.01,-0.1,0,0
12:25:28.400,0,0,-0.01,0,0.01,-0.1,0,0
12:25:28.411,0,-0.01,0,-0.01,0.01,-0.24,-0.01,-0.01
12:25:28.421,-0.01,0,-0.01,-0.01,0.02,0.04,-0.01,0
12:25:28.432,-0.01,0,-0.01,-0.01,0.02,0.04,-0.01,0
12:25:28.442,0,0,0,-0.01,-0.02,0.15,-0.03,0.06
12:25:28.486,-0.01,0,0.03,0,0.01,-0.05,0,-0.02
12:25:28.498,0.01,0,-0.01,0,-0.04,0,-0.01,-0.01
12:25:28.510,0.01,0,-0.01,0,-0.04,0,-0.01,-0.01
12:25:28.520,0.01,0,-0.01,0,-0.04,0,-0.01,-0.01
12:25:28.530,0,0,-0.02,-0.01,-0.02,0.04,0.01,0.01
12:25:28.543,0,0,0.01,0,-0.02,0,-0.01,-0.02
12:25:28.585,0,0,0,0,-0.01,-0.05,-0.09,0
12:25:28.596,0,0,-0.02,0,0.01,0.1,0,-0.02
12:25:28.608,0,0,-0.02,0,0.01,0.1,0,-0.02
12:25:28.620,0,0,0.02,0,0.01,-0.18,-0.02,-0.01
12:25:28.630,0,0,0.02,0,0.01,-0.18,-0.02,-0.01
12:25:28.641,0,-0.01,-0.05,-0.01,0,-0.01,0.03,0.01
12:25:28.651,0,-0.01,-0.05,-0.01,0,-0.01,0.03,0.01
12:25:28.694,-0.02,0,0,0,-0.03,0.09,0.04,0
12:25:28.705,0.01,0,0,0,0,0,0.03,0.03
12:25:28.717,0,0,0.02,0,0,-0.02,0.04,-0.03
12:25:28.728,0,0,0.02,0,0,-0.02,0.04,-0.03
12:25:28.739,0,0,-0.03,-0.01,0,-0.04,-0.02,-0.03
12:25:28.748,0,0,-0.03,-0.01,0,-0.04,-0.02,-0.03
12:25:28.757,0,0,-0.03,-0.01,0,-0.04,-0.02,-0.03
12:25:28.766,-0.01,0,-0.01,0.01,0,-0.02,-0.03,-0.01
12:25:28.809,0,0.01,-0.01,0,-0.01,0.07,-0.01,0
12:25:28.818,0,0.01,-0.01,0,-0.01,0.07,-0.01,0
12:25:28.829,-0.01,0,-0.01,0,0,-0.1,0,0
12:25:28.841,0,0,-0.02,0.01,-0.01,0.08,-0.01,-0.01
12:25:28.852,0,-0.02,0,-0.01,-0.01,-0.07,-0.01,-0.01
12:25:28.861,-0.02,0,-0.01,0,0,-0.02,-0.07,-0.02
12:25:28.871,-0.02,0,-0.01,0,0,-0.02,-0.07,-0.02
12:25:28.918,0,0,-0.01,0.02,0.01,-0.24,0.01,0.05
12:25:28.949,0,-0.03,-0.01,-0.01,0,-0.03,0.04,-0.01
12:25:28.969,0.01,-0.02,-0.01,0,-0.01,0.03,0,0
12:25:28.982,0,0,0,0,0,0.11,-0.03,-0.02
12:25:29.022,-0.01,-0.05,-0.02,-0.02,-0.01,0.01,-0.01,0
12:25:29.034,-0.01,-0.05,-0.02,-0.02,-0.01,0.01,-0.01,0
12:25:29.044,0,0.02,0,0,0,-0.01,0.01,-0.03
12:25:29.057,0,0.02,0,0,0,-0.01,0.01,-0.03
12:25:29.066,0,-0.02,0,-0.01,0,0,-0.02,-0.03
12:25:29.077,0,0,-0.02,0,-0.01,0.02,-0.05,-0.05
12:25:29.089,0,0.01,0,0.02,0,-0.08,0.03,0.01
12:25:29.098,-0.01,0.02,0,0,0,-0.01,0,-0.01
12:25:29.145,0,-0.01,-0.01,0,-0.01,0.06,-0.07,0
12:25:29.155,0,-0.01,-0.01,0,-0.01,0.06,-0.07,0
12:25:29.167,0,-0.01,0.07,0,-0.01,0.25,0.01,-0.04
12:25:29.179,0,-0.01,0.07,0,-0.01,0.25,0.01,-0.04
12:25:29.192,0,0,-0.06,-0.02,0,0.06,-0.01,-0.04
12:25:29.203,0,0,-0.07,-0.01,-0.03,-0.32,0.05,0.02
12:25:29.250,-0.01,-0.02,0.01,-0.01,0,0.02,0.01,-0.04
12:25:29.260,-0.01,-0.02,0.01,-0.01,0,0.02,0.01,-0.04
12:25:29.270,0,-0.02,0,0.01,0.03,0.11,-0.03,0.04
12:25:29.283,-0.01,0.02,0,-0.01,-0.02,-0.16,0.04,0.01
12:25:29.299,-0.01,0.02,0,-0.01,-0.02,-0.16,0.04,0.01
12:25:29.309,0,0.07,0.01,0,0.01,0.08,0.03,-0.11
12:25:29.352,0,0.02,0.06,0,0,0.07,0,0.01
12:25:29.366,-0.03,-0.01,-0.03,0,-0.01,-0.07,-0.02,0
12:25:29.377,-0.03,-0.01,-0.03,0,-0.01,-0.07,-0.02,0
12:25:29.387,-0.01,-0.03,0.01,-0.01,0,-0.1,0,0.02
12:25:29.397,-0.01,-0.03,0.01,-0.01,0,-0.1,0,0.02
12:25:29.407,-0.01,-0.02,-0.02,0,0.01,0.09,0.01,-0.01
12:25:29.421,0.01,-0.01,-0.01,0,0,-0.15,0.01,-0.2
12:25:29.469,0,0.02,0.02,0,0,-0.01,0.08,-0.02
12:25:29.483,0,-0.09,-0.08,-0.01,0,0.13,-0.03,0.01
12:25:29.493,0,-0.09,-0.08,-0.01,0,0.13,-0.03,0.01
12:25:29.504,0,-0.01,0.09,0,0,0.11,-0.01,0.01
12:25:29.513,0,-0.01,0.09,0,0,0.11,-0.01,0.01
12:25:29.524,0,0.05,0,0,-0.02,-0.02,-0.02,0
12:25:29.536,-0.01,0,-0.16,0,-0.01,0.43,-0.02,0.02
12:25:29.580,0,0,0.02,-0.01,0,-0.12,-0.01,0
12:25:29.591,0,0,0.02,-0.01,0,-0.12,-0.01,0
12:25:29.600,0,0,0.02,-0.01,0,-0.12,-0.01,0
12:25:29.610,0,0.02,0.01,0,0,-0.14,0,0.03
12:25:29.619,0,0.02,0.01,0,0,-0.14,0,0.03
12:25:29.629,-0.01,-0.04,0.03,0,0,-0.05,-0.01,0
12:25:29.642,-0.01,-0.01,-0.04,-0.01,-0.01,-0.03,0.07,-0.01
12:25:29.687,0,-0.01,0,0,0.01,-0.06,-0.02,-0.04
12:25:29.699,0,0,0,0,0,0,0,0
12:25:29.714,0,0,0,0,0,0,0,0
12:25:29.725,-0.02,-0.16,0,-0.01,0,-0.03,0,0.01
12:25:29.735,-0.02,-0.16,0,-0.01,0,-0.03,0,0.01
12:25:29.745,0,0.02,0.03,0,0,-0.12,0.01,0
12:25:29.754,-0.01,0.04,0,0,0,0.03,-0.01,-0.01
12:25:29.800,0,0.04,0.08,0.01,0.01,-0.22,0,0.04
12:25:29.810,0,-0.01,0,-0.01,0,0.08,-0.01,0.02
12:25:29.819,-0.01,-0.1,-0.01,0,0,0.04,0,-0.02
12:25:29.833,-0.01,-0.01,-0.03,-0.02,0,0.07,-0.01,-0.05
12:25:29.844,-0.01,-0.01,-0.03,-0.02,0,0.07,-0.01,-0.05
12:25:29.854,-0.01,0.02,0,0,-0.01,0.03,-0.07,-0.02
12:25:29.864,0,0.01,-0.12,-0.01,0,0,0.01,0.03
12:25:29.906,0,0.22,0,0.01,0,0.1,0.06,-0.02
12:25:29.918,0,0.22,0,0.01,0,0.1,0.06,-0.02
12:25:29.927,0,-0.08,0.01,0,0,0.06,0,0.01
12:25:29.936,0,-0.08,0.01,0,0,0.06,0,0.01
12:25:29.951,0,-0.04,0.04,0,-0.01,0.05,0,0
12:25:29.962,0,-0.04,0.04,0,-0.01,0.05,0,0
12:25:29.972,0,-0.03,-0.03,0,0,0.01,0.02,0
12:25:30.016,0,-0.05,0,0,0,-0.03,-0.02,0
12:25:30.028,0,0,0.03,0,0,0.02,0,-0.05
12:25:30.038,0,0,0.03,0,0,0.02,0,-0.05
12:25:30.049,0,0,0.03,0,0,0.02,0,-0.05
12:25:30.060,-0.01,0.02,-0.04,0,0.01,0,0.05,0.04
12:25:30.074,0,-0.02,-0.01,0,0.01,-0.14,0,0
12:25:30.086,0,0.01,-0.05,0,0,-0.03,-0.09,0.01
12:25:30.124,-0.01,0,0.2,0,0,0,-0.01,0
12:25:30.133,-0.01,-0.05,-0.02,-0.01,-0.01,-0.17,0.06,0
12:25:30.143,0,0.15,0.07,-0.01,0,-0.09,0,-0.01
12:25:30.153,0,0.15,0.07,-0.01,0,-0.09,0,-0.01
12:25:30.164,-0.01,-0.05,-0.06,-0.01,-0.02,-0.06,-0.02,-0.03
12:25:30.182,-0.01,-0.05,-0.06,-0.01,-0.02,-0.06,-0.02,-0.03
12:25:30.246,0,-0.24,-0.01,0,0,-0.18,-0.01,0
12:25:30.257,0,-0.24,-0.01,0,0,-0.18,-0.01,0
12:25:30.271,0,-0.01,-0.01,-0.01,0,0.01,-0.03,-0.03
12:25:30.288,0,0.05,-0.12,0,0.01,-0.03,-0.01,0
12:25:30.299,-0.02,0.03,0.02,0.01,0,-0.09,0.03,0.01
12:25:30.346,0,0.02,0,0,0,0.02,-0.03,0.01
12:25:30.358,0,0.02,0,0,0,0.02,-0.03,0.01
12:25:30.369,0.01,-0.03,0.02,-0.01,0,0.05,-0.02,0
12:25:30.383,0,0.05,-0.03,-0.01,-0.02,0.14,0.02,0.02
12:25:30.395,0,0.05,-0.03,-0.01,-0.02,0.14,0.02,0.02
12:25:30.407,-0.02,-0.02,0.01,0,-0.01,-0.02,0.04,-0.04
12:25:30.455,0,0.03,0.03,0,0,-0.01,-0.01,0.03
12:25:30.470,0,0.01,-0.01,-0.02,0,-0.07,0.03,-0.19
12:25:30.481,0,0.01,-0.01,-0.02,0,-0.07,0.03,-0.19
12:25:30.493,0.03,0.02,-0.02,-0.02,-0.03,-0.07,-0.35,0.22
12:25:30.505,-0.01,0,-0.01,0,-0.03,-0.06,0,0.05
12:25:30.517,-0.01,0,-0.01,0,-0.03,-0.06,0,0.05
12:25:30.562,-0.02,0,-0.05,0.01,0,0.03,0,0.05
12:25:30.573,-0.02,0,-0.05,0.01,0,0.03,0,0.05
12:25:30.584,-0.04,-0.04,-0.19,-0.01,0,0.13,-0.02,-0.19
12:25:30.595,-0.04,-0.04,-0.19,-0.01,0,0.13,-0.02,-0.19
12:25:30.604,-0.04,-0.04,-0.19,-0.01,0,0.13,-0.02,-0.19
12:25:30.617,0.01,0.01,0.04,0.01,0,0.15,0.18,-0.01
12:25:30.628,-0.02,-0.36,0.03,-0.02,0.01,-0.1,-0.07,0
12:25:30.637,0.01,-0.01,0.04,0,0,0,-0.03,0.03
12:25:30.681,0.02,0.15,0.04,0,-0.04,-0.07,0,0.09
12:25:30.693,0.02,0.15,0.04,0,-0.04,-0.07,0,0.09
12:25:30.702,0.02,0.15,0.04,0,-0.04,-0.07,0,0.09
12:25:30.713,0.02,0.11,-0.01,0,0,-0.02,-0.06,0.03
12:25:30.727,-0.01,0.01,0.02,0,0.01,0,0.1,-0.02
12:25:30.740,0.02,0.08,-0.03,0,0,-0.09,-0.03,0.01
12:25:30.788,-0.01,0.01,0,0,0.01,-0.08,-0.17,0.02
12:25:30.801,0,-0.19,0.09,0,0,0.01,-0.19,-0.04
12:25:30.815,0,0.05,0.12,0,0,-0.05,0.07,0
12:25:30.826,0,0.03,0.1,-0.01,0,-0.13,0.03,-0.05
12:25:30.840,0,0.03,0.1,-0.01,0,-0.13,0.03,-0.05
12:25:30.853,0,0.09,-0.06,-0.01,-0.01,-0.08,-0.03,0
12:25:30.902,-0.02,0,-0.09,0,0,0.01,0.15,-0.03
12:25:30.921,0.01,0,0,0,-0.02,0.02,0.03,0.11
12:25:30.938,-0.01,-0.06,-0.06,-0.02,0,0.34,0.1,-0.05
12:25:30.949,0,0.01,-0.04,-0.01,-0.03,-0.24,-0.09,0.01
12:25:30.963,0,-0.04,-0.01,0,0,0,-0.03,0
12:25:31.008,0,0.04,0.14,0,-0.01,-0.16,0.05,0.01
12:25:31.021,0,0.04,0.14,0,-0.01,-0.16,0.05,0.01
12:25:31.033,0,0,-0.07,0,0.01,0.04,0.09,0
12:25:31.045,0,0.06,0.06,0,0.01,0.3,0,-0.01
12:25:31.056,-0.03,0.03,0.15,0,-0.02,-0.03,0.03,-0.07
12:25:31.068,0,0.08,-0.06,0,0,0.11,-0.03,0.03
12:25:31.118,-0.02,0,-0.05,0,0,-0.28,-0.14,-0.02
12:25:31.128,0.01,0.12,-0.04,-0.01,0,-0.31,-0.07,-0.04
12:25:31.140,0.01,0,0.01,-0.01,0,0.03,0.06,0
12:25:31.150,-0.02,-0.18,-0.16,0,0,0.23,0.05,0.05
12:25:31.161,-0.02,-0.18,-0.16,0,0,0.23,0.05,0.05
12:25:31.172,0.01,-0.08,-0.03,-0.01,0,-0.01,0.03,0.02
12:25:31.181,0,0.13,0.02,0.01,0,0.09,0.01,-0.07
12:25:31.224,-0.01,0.02,0,-0.01,-0.01,0.12,0.03,-0.01
12:25:31.236,0,0,-0.08,0,0,-0.2,-0.01,0.01
12:25:31.248,-0.01,-0.19,-0.31,0,-0.02,0.04,0.07,0
12:25:31.261,0.02,0.08,-0.02,0,-0.02,-0.05,-0.01,0
12:25:31.271,-0.01,-0.02,-0.08,-0.02,0,0.21,0,0
12:25:31.280,-0.01,-0.02,-0.08,-0.02,0,0.21,0,0
12:25:31.289,0,0.03,0.04,0,0.01,0.04,0.15,0.03
12:25:31.337,0,0,0.02,0,-0.01,0.15,0.01,0
12:25:31.349,0,0.09,0.09,0,0,-0.02,0.02,-0.03
12:25:31.362,0,-0.05,-0.23,-0.01,-0.01,0,0.02,0.11
12:25:31.372,0,-0.06,0.02,-0.01,0,-0.09,-0.05,0.02
12:25:31.383,0,-0.06,0.02,-0.01,0,-0.09,-0.05,0.02
12:25:31.394,-0.02,0.11,0.03,0,-0.01,0.06,-0.01,-0.04
12:25:31.447,0,0.01,0.06,0,0,-0.1,0.02,0.01
12:25:31.457,0,0.01,0.06,0,0,-0.1,0.02,0.01
12:25:31.470,0,-0.07,0.06,0,0,-0.12,-0.01,0
12:25:31.483,0,-0.07,0.15,-0.01,0,0.03,-0.02,-0.16
12:25:31.494,-0.01,-0.05,-0.01,0,-0.02,0,-0.01,-0.01
12:25:31.505,-0.01,-0.05,-0.01,0,-0.02,0,-0.01,-0.01
12:25:31.551,0,-0.14,0.08,-0.01,0.01,0.01,0,0.03
12:25:31.563,0,-0.14,0.08,-0.01,0.01,0.01,0,0.03
12:25:31.575,-0.01,-0.28,0.16,0,0.01,0.09,0.03,0
12:25:31.591,0,-0.02,0,0,0,-0.09,0.03,-0.01
12:25:31.601,0,-0.02,0,0,0,-0.09,0.03,-0.01
12:25:31.611,0.02,0.14,-0.12,0,-0.01,-0.03,-0.05,0.03
12:25:31.620,0,0.06,0.03,-0.01,0,-0.02,-0.03,-0.04
12:25:31.663,0.01,0,0.12,0.02,0.01,0,0.11,0.06
12:25:31.674,0,0,-0.05,-0.01,0.04,-0.19,0.03,0.03
12:25:31.683,0,0,-0.05,-0.01,0.04,-0.19,0.03,0.03
12:25:31.693,-0.03,-0.01,0.12,0,-0.01,-0.01,0.04,-0.03
12:25:31.706,-0.03,-0.01,0.12,0,-0.01,-0.01,0.04,-0.03
12:25:31.721,0,0.3,0.17,0,-0.01,0.09,0,-0.02
12:25:31.731,0,-0.03,-0.05,0,-0.02,-0.08,-0.03,0.03
12:25:31.777,-0.01,-0.05,-0.1,-0.01,-0.01,0.02,0.02,-0.01
12:25:31.788,-0.02,-0.06,0.19,0,0,0.02,-0.01,-0.03
12:25:31.798,0.02,0.02,0.1,0.01,-0.03,-0.13,-0.01,-0.01
12:25:31.808,0,-0.02,0,0,0,-0.05,0,0
12:25:31.818,0,-0.02,0,0,0,-0.05,0,0
12:25:31.831,0,-0.06,0.09,-0.01,-0.02,-0.29,-0.01,0.02
12:25:31.879,0,0.18,0,0,-0.01,0.08,-0.04,-0.05
12:25:31.893,0,0.09,-0.04,-0.01,-0.02,0.15,0.03,0.02
12:25:31.907,0,0,-0.1,0,-0.01,-0.06,-0.14,0.03
12:25:31.920,-0.01,-0.08,0.01,0,-0.01,-0.1,0.01,0.02
12:25:31.930,-0.01,-0.1,-0.01,-0.01,0,0.14,0,-0.01
12:25:31.940,-0.01,-0.1,-0.01,-0.01,0,0.14,0,-0.01
12:25:31.950,-0.01,-0.02,-0.03,0,0,0.02,-0.17,-0.01
12:25:31.999,-0.03,-0.07,-0.21,-0.01,0,0.04,0.01,0.02
12:25:32.012,0,-0.07,0,-0.01,-0.02,0.09,0.04,0.02
12:25:32.026,0,-0.07,0,-0.01,-0.02,0.09,0.04,0.02
12:25:32.036,0.01,0.16,0.03,0,0,0.14,0.06,0.03
12:25:32.045,0.01,0.16,0.03,0,0,0.14,0.06,0.03
12:25:32.056,-0.01,-0.07,-0.05,0,0,-0.11,-0.06,-0.01
12:25:32.098,-0.03,-0.29,-0.06,0,0.01,-0.23,0.05,-0.04
12:25:32.109,-0.01,0.04,-0.14,0,-0.02,-0.17,-0.15,-0.01
12:25:32.121,-0.01,0.04,-0.14,0,-0.02,-0.17,-0.15,-0.01
12:25:32.138,0,-0.03,-0.1,0.01,-0.01,0,0.05,-0.02
12:25:32.153,-0.02,-0.08,0,-0.01,0,0.07,0.07,-0.08
12:25:32.171,0,-0.03,0.03,0,0.01,-0.19,0.09,0.02
12:25:32.218,-0.04,-0.16,-0.02,0,0,-0.11,-0.18,-0.03
12:25:32.229,0.01,-0.05,0.08,0.01,0,-0.17,0,0
12:25:32.242,0,-0.04,-0.05,-0.02,0,-0.07,0.13,0
12:25:32.253,-0.01,0.09,-0.2,0,0,0.1,0.08,0.01
12:25:32.263,-0.01,0.09,-0.2,0,0,0.1,0.08,0.01
12:25:32.272,0,0.1,0,0,-0.01,0,-0.07,-0.05
12:25:32.281,-0.02,0,0.14,0,0.03,0.06,0.09,-0.01
12:25:32.327,-0.02,0,0.14,0,0.03,0.06,0.09,-0.01
12:25:32.337,0.01,0.02,-0.14,-0.02,0,-0.09,-0.01,0
12:25:32.348,-0.04,0.11,-0.04,0,-0.03,-0.1,-0.05,-0.05
12:25:32.364,0.02,-0.17,-0.09,0,-0.01,0.17,0.03,0
12:25:32.380,-0.01,0.13,0,0,0,0.2,-0.04,-0.02
12:25:32.431,-0.02,0.09,0.01,0,0,-0.03,0,0
12:25:32.446,-0.02,0.09,0.01,0,0,-0.03,0,0
12:25:32.456,0.01,0,0.07,0,0.01,0.29,-0.01,0
12:25:32.469,-0.01,-0.09,0,-0.01,-0.01,0,0.06,-0.02
12:25:32.478,-0.01,-0.01,0.11,0,-0.02,-0.3,-0.04,-0.04
12:25:32.490,-0.02,0.3,0.15,0,0,0.01,0.07,0.01
12:25:32.541,0,0.05,-0.06,0,-0.03,-0.03,-0.07,0
12:25:32.553,0,0.04,0.02,-0.01,0.02,0.01,0.03,0.02
12:25:32.566,0,0.04,0.02,-0.01,0.02,0.01,0.03,0.02
12:25:32.576,0.03,0.03,0.04,0.01,-0.01,-0.14,0.07,0.02
12:25:32.587,-0.01,-0.05,0.21,0,-0.02,0.05,0.05,0
12:25:32.600,0.04,0.43,0.04,-0.01,0.01,0.06,0.1,-0.02
12:25:32.647,0,0,0,0.01,0.03,0.01,-0.01,0.02
12:25:32.657,0,0.08,-0.02,0,-0.01,-0.09,-0.03,0
12:25:32.667,0,0.08,-0.02,0,-0.01,-0.09,-0.03,0
12:25:32.682,-0.01,-0.15,0.21,0,-0.01,-0.07,-0.14,0.01
12:25:32.694,-0.03,-0.14,-0.09,-0.01,0,0.08,0.13,-0.05
12:25:32.704,-0.03,-0.14,-0.09,-0.01,0,0.08,0.13,-0.05
12:25:32.713,0.04,0.32,0.02,0,0,0,0.06,0.03
12:25:32.755,0,-0.08,0.04,0,0,-0.13,-0.03,-0.02
12:25:32.765,0,0.07,-0.07,0,-0.01,0.04,0.25,-0.02
12:25:32.775,0,0.07,-0.07,0,-0.01,0.04,0.25,-0.02
12:25:32.788,-0.01,-0.02,0.08,-0.01,-0.02,-0.1,0.02,-0.02
12:25:32.799,0,0.03,-0.01,-0.01,0.01,-0.04,0.06,0.04
12:25:32.811,0,0.07,-0.02,0,0,-0.13,-0.05,-0.07
12:25:32.820,0,0.73,-0.05,0,0,0.01,-0.06,-0.04
12:25:32.862,-0.02,-0.22,0.04,0,-0.01,0.15,-0.02,0
12:25:32.873,0,-0.15,0.18,0,-0.03,-0.18,-0.33,-0.04
12:25:32.882,0,-0.15,0.18,0,-0.03,-0.18,-0.33,-0.04
12:25:32.894,0.03,0.03,0.07,0,0,0.05,0.13,0.02
12:25:32.905,0.03,0.03,0.07,0,0,0.05,0.13,0.02
12:25:32.916,-0.02,-0.07,0.19,0.01,0,-0.19,-0.09,0
12:25:32.929,0,-0.09,-0.26,-0.01,0.01,0.01,0.09,0.03
12:25:32.976,0.01,0.21,-0.05,-0.01,-0.03,0.49,-0.02,-0.01
12:25:32.988,0.01,0.21,-0.05,-0.01,-0.03,0.49,-0.02,-0.01
12:25:33.001,-0.03,-0.73,-0.19,-0.02,-0.01,-0.21,-0.2,-0.02
12:25:33.012,-0.03,-0.73,-0.19,-0.02,-0.01,-0.21,-0.2,-0.02
12:25:33.025,0,-0.04,-0.01,0.01,-0.01,-0.1,0.06,-0.02
12:25:33.035,0,-0.08,0.23,-0.01,0,0.03,0.04,0
12:25:33.083,0.02,-0.08,-0.21,0,0,-0.21,0.01,0.02
12:25:33.095,0,0.06,-0.02,-0.01,-0.03,0.16,0,-0.01
12:25:33.110,0,0.06,-0.02,-0.01,-0.03,0.16,0,-0.01
12:25:33.125,0,0.14,0,0.01,-0.01,-0.1,0,0
12:25:33.136,0,-0.05,-0.01,0,0,-0.04,-0.01,-0.02
12:25:33.146,0,-0.05,-0.01,0,0,-0.04,-0.01,-0.02
12:25:33.155,-0.01,-0.06,0.13,-0.02,-0.01,0.01,0.05,0
12:25:33.198,0.04,0.58,0.02,0,0,0.11,-0.01,0
12:25:33.208,0.03,0.24,0.16,0,0.01,0.17,0.17,0.01
12:25:33.217,-0.02,-0.23,0.19,0,-0.01,-0.02,-0.03,-0.02
12:25:33.226,-0.02,-0.23,0.19,0,-0.01,-0.02,-0.03,-0.02
12:25:33.239,-0.01,-0.06,-0.04,0,-0.01,-0.12,0.03,0
12:25:33.252,-0.01,-0.06,-0.04,0,-0.01,-0.12,0.03,0
12:25:33.261,-0.01,-0.07,-0.08,-0.01,-0.02,-0.07,-0.01,-0.01
12:25:33.301,0.01,-0.02,-0.06,-0.01,0,0.11,0,-0.03
12:25:33.312,0.01,-0.02,-0.06,-0.01,0,0.11,0,-0.03
12:25:33.321,0,0.06,-0.23,0,-0.01,-0.07,-0.02,0
12:25:33.331,0.01,0.05,0.13,0.03,0.02,0,0,-0.01
12:25:33.343,0,-0.07,0.09,-0.02,-0.03,0.01,0.01,0.01
12:25:33.358,0.01,-0.05,-0.03,0,0,-0.14,-0.05,0.02
12:25:33.371,-0.01,0.04,0.04,-0.01,0,-0.03,-0.04,-0.01
12:25:33.418,0,0.09,-0.01,-0.02,-0.01,-0.1,-0.12,0
12:25:33.431,0,0.09,-0.01,-0.02,-0.01,-0.1,-0.12,0
12:25:33.441,-0.02,-0.1,-0.07,0,0,0.13,0.08,-0.02
12:25:33.452,0.02,0.25,-0.1,0,-0.01,-0.01,-0.01,0.03
12:25:33.462,0.01,0.41,0.07,0,-0.01,0.07,-0.06,-0.01
12:25:33.473,0,0.14,0.09,0,0.01,0.01,-0.05,0
12:25:33.515,0,0.05,0.05,-0.01,-0.01,-0.19,0.02,-0.01
12:25:33.526,0,0.15,-0.07,-0.01,0,-0.02,0.09,-0.02
12:25:33.537,0.06,0.02,0.06,-0.01,0,-0.13,0.01,0.02
12:25:33.548,0.06,0.02,0.06,-0.01,0,-0.13,0.01,0.02
12:25:33.558,0.02,0.71,0.08,0,0,0.08,0.07,0
12:25:33.570,0.01,0.05,-0.08,-0.01,-0.05,0.1,-0.01,0
12:25:33.580,-0.03,0,-0.02,0,-0.02,-0.06,-0.06,0
12:25:33.590,-0.02,-0.18,0.13,0.02,0,0.12,-0.15,-0.01
12:25:33.638,-0.03,-0.29,-0.08,-0.01,-0.02,0.12,-0.01,-0.02
12:25:33.651,0.01,0.04,-0.01,-0.01,0,0.08,-0.01,-0.01
12:25:33.661,-0.01,-0.16,-0.26,-0.03,0,-0.08,0.05,0
12:25:33.673,-0.01,-0.16,-0.26,-0.03,0,-0.08,0.05,0
12:25:33.684,-0.02,-0.04,-0.1,0.02,0,0,-0.05,-0.04
12:25:33.699,0.08,-0.25,0,-0.02,-0.04,-0.09,0.13,0.02
12:25:33.753,-0.01,0.21,0.06,-0.02,0,-0.12,-0.04,-0.02
12:25:33.764,-0.02,-0.29,0,0.01,0.01,0.09,0,0
12:25:33.775,-0.01,-0.04,0.01,0,-0.01,-0.22,0.12,0
12:25:33.784,-0.01,-0.04,0.01,0,-0.01,-0.22,0.12,0
12:25:33.794,-0.02,0.47,-0.06,-0.02,-0.06,-0.03,-0.01,-0.04
12:25:33.802,-0.02,-0.13,-0.12,-0.02,-0.01,0.01,-0.03,0
12:25:33.846,-0.01,0.18,0.22,0,0.01,0.22,0.02,0
12:25:33.858,-0.03,-0.31,0.16,0.02,0,0.02,0.02,0.02
12:25:33.872,0.03,0.02,0.1,0,0.02,0.13,0,0.04
12:25:33.887,-0.02,0.06,0.14,0.01,0,-0.04,-0.06,-0.02
12:25:33.898,-0.01,-0.05,-0.09,0,-0.04,-0.02,-0.02,-0.03
12:25:33.909,-0.01,-0.05,-0.09,0,-0.04,-0.02,-0.02,-0.03
12:25:33.918,0,0.16,-0.36,-0.01,-0.01,0.18,0.04,0
12:25:33.961,0,-0.05,0.18,0.01,0.01,-0.24,-0.23,-0.01
12:25:33.971,0,-0.05,0.18,0.01,0.01,-0.24,-0.23,-0.01
12:25:33.983,0.01,0,0.03,0,0,-0.09,0.02,0.01
12:25:33.994,0.01,0,0.03,0,0,-0.09,0.02,0.01
12:25:34.005,0.05,0.08,0.04,0,0,0.12,0.07,-0.01
12:25:34.017,0.04,0.13,-0.02,-0.01,0.02,0.02,0.09,-0.04
12:25:34.029,-0.03,-0.39,0.18,0.03,0,-0.08,-0.09,-0.01
12:25:34.076,-0.01,-0.09,-0.14,-0.01,-0.04,-0.28,-0.04,0
12:25:34.090,-0.01,-0.09,-0.14,-0.01,-0.04,-0.28,-0.04,0
12:25:34.104,-0.02,-0.53,0.02,0,0,0.19,0,-0.01
12:25:34.115,-0.02,-0.53,0.02,0,0,0.19,0,-0.01
12:25:34.125,-0.01,0.13,0.04,-0.02,-0.01,0.08,-0.17,0
12:25:34.137,0.34,0.12,-0.12,0,0,0.03,0.06,0.01
12:25:34.183,0.05,-0.2,0.05,-0.02,-0.04,0,0.12,-0.01
12:25:34.194,-0.06,0.12,-0.08,0.01,0.02,0.03,-0.06,0
12:25:34.208,-0.1,0.11,0.03,-0.01,-0.03,0.22,0.03,0
12:25:34.220,-0.19,0.18,0.11,0.01,0.02,0.1,-0.2,-0.02
12:25:34.231,-0.19,0.18,0.11,0.01,0.02,0.1,-0.2,-0.02
12:25:34.243,-0.02,-0.2,-0.15,-0.01,0,-0.02,-0.03,0.03
12:25:34.287,-0.08,-0.54,-0.04,0.01,0.01,-0.14,0,-0.03
12:25:34.298,0,-0.07,0.16,0,0,-0.16,0.03,0
12:25:34.317,-0.13,0.16,-0.08,-0.03,-0.03,-0.06,-0.08,-0.02
12:25:34.336,0.06,-0.02,-0.03,-0.01,0.01,0.1,0.1,0.02
12:25:34.352,-0.01,0.05,0.14,0,-0.04,0.19,0.05,0
12:25:34.400,0.01,-0.47,-0.12,0,-0.01,-0.18,0.01,0
12:25:34.412,0.01,-0.47,-0.12,0,-0.01,-0.18,0.01,0
12:25:34.426,0.06,0.26,0.22,0.01,0.01,-0.04,-0.05,0
12:25:34.440,-0.01,0.15,0.05,0,0,-0.11,-0.05,0
12:25:34.453,0.01,0.35,0.03,-0.01,0,-0.37,-0.09,-0.01
12:25:34.465,-0.02,-0.04,-0.2,0,0,0,-0.02,-0.01
12:25:34.514,0,-0.01,0.01,0.01,0.01,0.01,0.13,-0.01
12:25:34.531,0,0.44,0.04,0,0,0.05,-0.08,0
12:25:34.544,0,-0.28,0,-0.01,-0.02,0,-0.05,0.01
12:25:34.560,0,-0.05,-0.27,-0.01,0,0,0.1,-0.01
12:25:34.570,0.03,0.1,-0.04,0,-0.03,-0.19,-0.08,-0.04
12:25:34.614,0.01,0.07,0.07,0.01,-0.01,0.03,0.07,0.02
12:25:34.627,0.02,0.31,0.25,-0.01,-0.02,0.16,0.17,0
12:25:34.636,0,-0.27,-0.26,-0.01,0.02,0.06,-0.03,0.01
12:25:34.647,-0.01,-0.35,-0.02,0,0.01,-0.16,-0.09,0.02
12:25:34.660,0,-0.05,0.12,0.02,0.01,0.08,0.08,-0.01
12:25:34.671,-0.02,-0.24,-0.37,-0.03,0,0.19,0.03,0.01
12:25:34.719,0,-0.07,-0.01,0,0,0.15,0.1,0
12:25:34.732,-0.01,0.19,-0.01,-0.01,-0.01,0.18,0.01,-0.01
12:25:34.743,0.1,0.25,-0.03,0.02,0.01,0.32,-0.02,0
12:25:34.755,0,0.24,0.08,0,-0.01,-0.12,-0.05,0
12:25:34.764,0,0.24,0.08,0,-0.01,-0.12,-0.05,0
12:25:34.773,0,0.24,0.08,0,-0.01,-0.12,-0.05,0
12:25:34.786,-0.01,-0.07,-0.31,-0.03,-0.02,-0.01,0.01,-0.01
12:25:34.831,0,0.07,0.12,0.01,0,0.02,-0.06,0.01
12:25:34.846,-0.03,0.07,-0.02,0,0,-0.04,0.04,0
12:25:34.860,0.07,0.12,0.02,0,0.02,-0.07,-0.12,0
12:25:34.871,0.07,0.12,0.02,0,0.02,-0.07,-0.12,0
12:25:34.882,-0.03,0.22,0.16,0,-0.02,-0.21,-0.01,-0.01
12:25:34.891,-0.03,0.22,0.16,0,-0.02,-0.21,-0.01,-0.01
12:25:34.943,0.07,0,0.03,-0.02,-0.04,0.37,0.06,0
12:25:34.954,0.07,0,0.03,-0.02,-0.04,0.37,0.06,0
12:25:34.969,0,0.39,-0.11,-0.01,-0.02,-0.18,-0.12,-0.01
12:25:34.982,-0.14,-0.65,0.05,0,-0.01,-0.17,0.04,0
12:25:34.994,0.09,-0.14,-0.08,-0.02,0,-0.09,0.06,0.04
12:25:35.003,-0.09,-0.12,0.01,0,-0.02,-0.02,0.02,0
12:25:35.047,-0.03,0.3,0.03,-0.01,0,0.03,-0.01,-0.01
12:25:35.059,-0.05,0,-0.08,0,0.01,-0.04,-0.07,-0.01
12:25:35.068,-0.04,0.33,0.06,0,-0.01,0.25,0,-0.02
12:25:35.077,-0.03,-0.25,0.08,0,-0.03,-0.36,-0.01,-0.02
12:25:35.090,-0.03,-0.25,0.08,0,-0.03,-0.36,-0.01,-0.02
12:25:35.103,-0.1,-0.07,0.2,0.01,0.06,0.02,-0.11,0
12:25:35.114,0.05,0.16,0.12,0,0,0.04,0.07,0.02
12:25:35.156,-0.03,0.04,0.14,0,-0.01,-0.03,0.07,0
12:25:35.167,0.02,-0.25,-0.17,0.01,0.01,0.01,0.03,0.01
12:25:35.176,-0.07,0,-0.03,0,0,-0.01,0,0
12:25:35.186,0.01,-0.04,-0.13,-0.01,0,0.11,0.04,0.02
12:25:35.198,0.05,0.24,0.02,0,0,-0.03,0,-0.03
12:25:35.208,0.05,0.24,0.02,0,0,-0.03,0,-0.03
12:25:35.220,-0.09,-0.42,-0.05,0,-0.01,0.12,0.02,-0.02
12:25:35.264,0.02,0.09,-0.06,-0.01,0,-0.17,0,0.03
12:25:35.277,0.02,0.09,-0.06,-0.01,0,-0.17,0,0.03
12:25:35.290,0.03,0.07,0.02,0.01,-0.01,-0.19,-0.07,-0.01
12:25:35.302,0.01,-0.06,0.02,0,-0.01,0.03,0.01,0
12:25:35.314,0.01,-0.06,0.02,0,-0.01,0.03,0.01,0
12:25:35.326,-0.01,0.59,-0.03,-0.01,0,0.06,-0.01,0
12:25:35.368,-0.05,0.04,0.05,-0.02,-0.04,0.31,-0.1,-0.04
12:25:35.378,-0.04,0.57,0.07,0.01,0.01,-0.01,0.01,0.02
12:25:35.390,-0.04,0.57,0.07,0.01,0.01,-0.01,0.01,0.02
12:25:35.403,-0.08,-0.51,-0.07,-0.03,-0.03,0.03,-0.37,-0.09
12:25:35.414,0.02,0.61,0.14,0.01,-0.02,-0.02,0,-0.01
12:25:35.425,-0.02,-0.01,0.26,0,-0.01,0.06,0.09,0.01
12:25:35.439,-0.13,0.05,-0.17,-0.02,-0.01,-0.04,0.14,0.01
12:25:35.489,-0.06,-0.06,0.05,0,-0.03,0.32,0.08,-0.02
12:25:35.502,-0.06,-0.06,0.05,0,-0.03,0.32,0.08,-0.02
12:25:35.514,0.19,-0.17,-0.02,0.03,0.03,-0.2,-0.09,0.02
12:25:35.530,0.04,-0.32,0.05,0,0.02,-0.1,0.06,0
12:25:35.545,-0.08,-0.25,-0.11,-0.02,-0.01,-0.12,-0.08,-0.05
12:25:35.594,0.12,-0.33,0.11,-0.04,-0.07,0.25,-0.06,-0.02
12:25:35.606,-0.05,-0.13,-0.04,0.01,0,0.07,0.05,0.02
12:25:35.617,0.1,0.03,0.09,0,-0.01,-0.04,-0.01,0.04
12:25:35.629,0.1,0.03,0.09,0,-0.01,-0.04,-0.01,0.04
12:25:35.645,0.04,0.35,0.09,0.02,0,-0.08,0.21,-0.02
12:25:35.694,0,-0.05,0.01,-0.02,-0.02,-0.08,0.03,-0.02
12:25:35.708,-0.05,-0.06,-0.03,0,0.03,-0.09,0.04,0.01
12:25:35.723,0.05,0.01,-0.01,-0.02,-0.01,0.03,-0.12,0
12:25:35.733,0.05,0.01,-0.01,-0.02,-0.01,0.03,-0.12,0
12:25:35.745,-0.07,-0.48,0.03,0,-0.06,-0.09,-0.05,-0.05
12:25:35.757,-0.07,-0.48,0.03,0,-0.06,-0.09,-0.05,-0.05
12:25:35.804,0.01,0,-0.13,0.01,0,-0.04,0.02,0.01
12:25:35.817,0.01,0,-0.13,0.01,0,-0.04,0.02,0.01
12:25:35.829,-0.05,-0.24,0.11,0,0,-0.04,0.13,-0.02
12:25:35.841,-0.07,-0.17,-0.07,0,-0.03,0.03,0.04,-0.05
12:25:35.851,-0.01,0.69,-0.05,-0.01,0.03,0.21,0.17,0
12:25:35.864,-0.04,-0.16,0.07,0.02,0.04,-0.16,-0.04,0.02
12:25:35.922,0.11,0.2,-0.1,0,-0.02,0.01,0.03,0.03
12:25:35.948,-0.08,-0.11,0.11,0.03,0.02,-0.02,0,0
12:25:35.959,-0.08,-0.11,0.11,0.03,0.02,-0.02,0,0
12:25:35.972,-0.07,-0.12,-0.09,-0.03,-0.06,0.29,-0.01,-0.05
12:25:36.027,0.1,0.49,0.01,-0.01,-0.01,0.12,-0.03,-0.01
12:25:36.040,0.05,-0.16,0,0,0,0.07,0.11,0.02
12:25:36.055,-0.1,-0.54,0.47,0.02,-0.04,0.06,-0.11,-0.01
12:25:36.069,-0.02,-0.4,-0.03,0,-0.01,-0.13,-0.03,-0.02
12:25:36.081,-0.02,-0.4,-0.03,0,-0.01,-0.13,-0.03,-0.02
12:25:36.093,0.02,0.09,0.04,0,0.01,-0.18,-0.11,0
12:25:36.149,0,0.29,0,0,0.01,-0.28,-0.07,0.01
12:25:36.161,-0.01,0.31,0.03,0,-0.05,-0.01,0.15,-0.01
12:25:36.172,-0.02,0.06,0.06,-0.01,0,0.23,0.02,0
12:25:36.185,-0.03,0.17,0.02,0.02,0.04,-0.36,0.18,-0.01
12:25:36.198,-0.37,0,0.17,-0.01,-0.03,0.05,-0.08,0
12:25:36.244,0.13,1.08,0.09,0.03,-0.01,-0.21,-0.07,0
12:25:36.256,0.13,1.08,0.09,0.03,-0.01,-0.21,-0.07,0
12:25:36.266,-0.03,-0.33,-0.04,0,-0.02,0.25,-0.21,-0.01
12:25:36.277,0,-0.14,-0.01,0,0.01,0.25,0.21,0.03
12:25:36.293,0.01,0.2,-0.08,-0.03,0,-0.03,-0.04,-0.05
12:25:36.306,-0.05,-0.98,0.01,0,0,0.08,0.07,0.02
12:25:36.351,-0.09,-0.87,0.08,0,0,0,0.12,-0.02
12:25:36.364,-0.02,-0.3,-0.1,-0.01,-0.01,-0.04,0.09,-0.01
12:25:36.374,-0.02,-0.3,-0.1,-0.01,-0.01,-0.04,0.09,-0.01
12:25:36.386,-0.08,0.42,-0.17,-0.01,-0.02,-0.26,-0.07,-0.02
12:25:36.399,-0.04,-0.22,0.16,-0.01,-0.01,0.2,-0.16,-0.02
12:25:36.413,-0.08,0.54,-0.12,-0.03,0,0.03,-0.06,0.01
12:25:36.458,-0.02,-0.08,-0.11,-0.01,0,-0.02,0.03,0
12:25:36.473,-0.07,0.15,-0.25,0,0,-0.1,-0.02,-0.03
12:25:36.485,0,-0.02,0.07,0,0,-0.03,-0.03,0
12:25:36.495,0,-0.02,0.07,0,0,-0.03,-0.03,0
12:25:36.506,0.02,-0.17,-0.35,0,0,0.47,0.09,0.01
12:25:36.517,0.04,-0.09,0.2,0,0,-0.03,0.05,0.01
12:25:36.528,-0.19,-0.05,0.04,0,-0.04,-0.18,-0.07,-0.04
12:25:36.597,0,0.57,0.01,-0.01,-0.07,-0.47,0.02,-0.06
12:25:36.609,0,-0.92,-0.02,0,0,-0.09,-0.06,0
12:25:36.625,0.04,0.1,0.21,-0.03,-0.05,-0.21,-0.17,0.02
12:25:36.638,0,0.42,0.1,0.01,0.01,0.2,-0.03,0
12:25:36.688,0,0.34,-0.12,-0.02,0.01,0.02,0,-0.02
12:25:36.699,-0.05,-0.18,-0.05,-0.03,-0.01,0.24,-0.08,0
12:25:36.710,0.02,-0.17,0,0.04,0.01,0.21,0.13,0
12:25:36.725,-0.02,0.09,0,0,0,-0.01,0.11,-0.02
12:25:36.738,-0.02,0.09,0,0,0,-0.01,0.11,-0.02
12:25:36.749,0.02,-0.36,-0.06,0,0.03,-0.05,0,0.02
12:25:36.799,0.03,0.13,0.05,0,0,0.03,0.03,0
12:25:36.811,0.02,0.21,0.07,-0.03,0,-0.01,0.16,0
12:25:36.827,0.05,0.73,0.13,-0.03,-0.04,0.16,-0.18,-0.01
12:25:36.839,0.05,0.73,0.13,-0.03,-0.04,0.16,-0.18,-0.01
12:25:36.855,-0.04,0.78,-0.01,0.01,0,-0.04,-0.11,-0.06
12:25:36.914,-0.31,-0.16,-0.17,0.01,0.05,0.54,0.09,0
12:25:36.929,0.13,0.24,-0.01,0,0,-0.06,-0.06,0.01
12:25:36.943,0.13,0.24,-0.01,0,0,-0.06,-0.06,0.01
12:25:36.956,0.06,0.24,0,0,0,0.04,0.04,0
12:25:37.004,-0.04,-0.27,0.04,0,-0.02,-0.03,-0.13,-0.01
12:25:37.015,0.21,0.71,0.05,-0.04,-0.03,0.08,-0.21,-0.09
12:25:37.025,0,-0.32,0.04,0.03,0,-0.05,0.02,0
12:25:37.038,0,-0.32,0.04,0.03,0,-0.05,0.02,0
12:25:37.051,0,-0.25,0.03,0.03,0.02,0.07,0.17,0.01
12:25:37.061,0,-0.25,0.03,0.03,0.02,0.07,0.17,0.01
12:25:37.071,0.01,-0.29,0.09,-0.01,0,-0.05,0.09,-0.01
12:25:37.123,-0.03,0.65,-0.04,-0.02,-0.02,-0.01,-0.12,-0.03
12:25:37.135,0.03,-0.15,-0.05,0.01,0,-0.02,0.07,0
12:25:37.146,0.1,0.97,-0.18,0,-0.04,-0.23,-0.02,0
12:25:37.164,-0.08,-0.36,-0.09,-0.02,-0.01,0.08,0.03,-0.01
12:25:37.176,-0.08,-0.36,-0.09,-0.02,-0.01,0.08,0.03,-0.01
12:25:37.225,0.24,-0.56,-0.15,-0.01,0.01,0.28,0.07,0.02
12:25:37.240,0.24,-0.56,-0.15,-0.01,0.01,0.28,0.07,0.02
12:25:37.252,-0.12,-0.02,0.16,0,0,0.05,0.06,-0.01
12:25:37.262,0.02,0.18,0.04,0,0.02,0.39,0.01,0.01
12:25:37.275,-0.14,0,0.21,0,0,-0.16,0,-0.03
12:25:37.291,0.09,-0.24,-0.15,-0.02,-0.01,0.35,0.04,0.04
12:25:37.359,0.04,-0.14,-0.09,0,0.05,0.01,0.08,0.01
12:25:37.370,-0.01,-0.11,0.09,0,-0.02,-0.07,0.17,0.01
12:25:37.384,-0.23,1.21,0.11,0,0,0.15,-0.11,-0.04
12:25:37.395,-0.01,0.14,-0.1,0.01,0.02,0.06,0.16,0
12:25:37.459,-0.02,-0.09,0,0,0.03,-0.11,0.15,0
12:25:37.477,0,0.33,0.06,-0.02,-0.04,-0.11,-0.27,-0.06
12:25:37.493,0.05,0.08,-0.21,-0.01,-0.02,0.04,0.05,0.02
12:25:37.505,-0.02,0.39,0,-0.02,-0.01,-0.04,0,-0.02
12:25:37.550,-0.12,0.01,0.2,0.01,-0.01,0.07,-0.04,-0.03
12:25:37.560,-0.02,-0.4,-0.05,0,0,-0.17,0.05,0.03
12:25:37.571,0,-0.05,-0.08,-0.02,-0.01,-0.12,0.16,0.03
12:25:37.586,0,-0.05,-0.08,-0.02,-0.01,-0.12,0.16,0.03
12:25:37.599,0,0.16,-0.13,0,0,0.37,0.03,0
12:25:37.613,0,0.15,-0.17,0,-0.03,-0.22,-0.07,0
12:25:37.662,-0.08,-0.14,0.07,0,0.02,0.21,0.02,0.01
12:25:37.673,0.01,0.06,-0.11,0,0.02,-0.05,-0.06,0.03
12:25:37.684,-0.02,-0.03,0.08,0,-0.03,-0.08,-0.02,-0.03
12:25:37.700,0.03,0.77,-0.12,-0.01,-0.03,-0.06,0.06,0
12:25:37.714,-0.24,0.01,0.06,-0.01,-0.01,0.06,-0.04,-0.05
12:25:37.727,0.29,0.63,0.47,0,-0.03,-0.04,-0.03,0
12:25:37.784,-0.07,-0.32,-0.09,0,0,0.02,0.02,0.02
12:25:37.798,-0.05,-0.29,-0.16,-0.02,-0.03,-0.05,-0.01,0
12:25:37.813,-0.07,-0.29,-0.22,0,0.01,-0.04,-0.34,-0.04
12:25:37.824,0.18,0.43,-0.3,0.02,0.02,0.02,-0.03,0.02
12:25:37.838,-0.03,-1.03,-0.01,-0.02,0,0.15,0.21,0.02
12:25:37.884,-0.08,-0.17,0.01,0,-0.01,-0.04,-0.14,-0.01
12:25:37.896,-0.08,-0.17,0.01,0,-0.01,-0.04,-0.14,-0.01
12:25:37.910,-0.03,0.28,0.09,0,-0.04,-0.14,-0.04,-0.05
12:25:37.922,-0.03,0.28,0.09,0,-0.04,-0.14,-0.04,-0.05
12:25:37.933,-0.04,-0.34,0.19,0,0,-0.23,0.06,0
12:25:37.946,0.17,-0.35,-0.36,-0.04,-0.04,-0.29,-0.19,0.04
12:25:38.000,0,0.72,-0.06,-0.01,-0.01,0.07,0.06,-0.03
12:25:38.012,0.01,0.27,0.04,0.01,0,0.01,0.11,0
12:25:38.025,-0.21,0.04,-0.01,0,0,0.3,-0.02,0.05
12:25:38.039,-0.21,0.04,-0.01,0,0,0.3,-0.02,0.05
12:25:38.051,0.02,-1.05,-0.05,0,-0.03,-0.05,-0.15,-0.03
12:25:38.061,0.04,0,-0.07,-0.01,-0.02,0.3,0.19,0.01
12:25:38.113,0.01,0.44,-0.18,-0.01,0,-0.09,-0.03,-0.04
12:25:38.123,-0.02,-0.52,0,-0.02,-0.02,0.09,0.01,-0.03
12:25:38.133,-0.16,1.05,0.02,0,0.01,-0.17,-0.29,-0.01
12:25:38.145,0.14,0.63,0.08,0.02,0,-0.1,0.12,0.02
12:25:38.160,0.14,0.63,0.08,0.02,0,-0.1,0.12,0.02
12:25:38.171,-0.16,0.17,0.16,0,0,-0.1,-0.12,-0.05
12:25:38.219,-0.01,-0.32,0.02,0,0,-0.03,-0.03,0.01
12:25:38.232,-0.05,-0.12,0.03,0,0,-0.13,-0.29,-0.06
12:25:38.242,-0.04,0.4,0.19,0,0.01,0.25,0.17,0.07
12:25:38.253,0.06,-0.08,-0.01,0,0,0.05,-0.06,0
12:25:38.262,0.06,-0.08,-0.01,0,0,0.05,-0.06,0
12:25:38.278,0.11,0.82,-0.01,-0.03,-0.02,-0.08,0.13,0
12:25:38.327,0.05,-0.53,-0.11,0,0,0.02,-0.07,-0.03
12:25:38.342,0.05,-0.53,-0.11,0,0,0.02,-0.07,-0.03
12:25:38.352,0.03,0.89,0.1,-0.01,0,-0.07,0.08,0
12:25:38.364,-0.02,-0.09,0.08,0,-0.01,-0.43,-0.07,0
12:25:38.375,-0.02,-0.46,-0.04,-0.01,-0.01,-0.1,0.11,0.01
12:25:38.432,0.04,-0.06,-0.04,0,0.03,-0.05,0.12,0
12:25:38.444,0.08,0.83,0.06,-0.01,-0.01,0.04,-0.02,-0.03
12:25:38.459,-0.01,0,0.16,0,-0.01,-0.11,0.04,-0.01
12:25:38.472,-0.02,-0.24,-0.12,-0.01,-0.01,0.19,0.01,-0.01
12:25:38.482,-0.04,-0.3,-0.11,-0.02,-0.02,-0.16,-0.18,-0.05
12:25:38.495,0.09,-0.58,0.1,0,-0.01,0.02,-0.2,0.01
12:25:38.554,-0.1,0.03,0.01,-0.03,-0.03,0.2,0.04,-0.02
12:25:38.566,0,0.41,-0.29,-0.01,0,0,0.09,0.01
12:25:38.579,0,0.41,-0.29,-0.01,0,0,0.09,0.01
12:25:38.595,-0.08,-0.43,0.2,0.04,0.04,-0.03,0.04,-0.01
12:25:38.660,0.05,-0.2,0.12,-0.01,-0.01,0.16,-0.08,0
12:25:38.675,-0.01,-0.34,-0.04,-0.01,-0.01,-0.2,0.02,-0.01
12:25:38.686,0,-0.02,0.04,0,0,0.4,0.02,0.02
12:25:38.700,0,-0.02,0.04,0,0,0.4,0.02,0.02
12:25:38.714,0,0.46,0.09,0,0.01,-0.05,0.15,0
12:25:38.754,-0.11,-0.09,-0.11,-0.02,-0.02,-0.18,0.02,0.01
12:25:38.765,-0.11,-0.09,-0.11,-0.02,-0.02,-0.18,0.02,0.01
12:25:38.776,0.05,-0.19,0,-0.01,-0.01,-0.08,-0.07,0
12:25:38.787,0.05,-0.19,0,-0.01,-0.01,-0.08,-0.07,0
12:25:38.796,0,0.16,-0.11,-0.02,-0.04,-0.15,-0.08,-0.01
12:25:38.805,0.05,0.2,-0.13,0,0.01,0.31,0.13,0
12:25:38.814,0.05,0.2,-0.13,0,0.01,0.31,0.13,0
12:25:38.823,-0.05,0.43,0.25,0,0,0.01,0.08,0
12:25:38.866,0.08,0.46,-0.25,-0.03,-0.01,0.06,0.07,0.03
12:25:38.878,0.07,0,0.01,-0.02,-0.01,0.09,-0.08,-0.02
12:25:38.889,0.01,-0.49,-0.07,0,-0.02,-0.12,-0.06,-0.01
12:25:38.900,0.01,-0.49,-0.07,0,-0.02,-0.12,-0.06,-0.01
12:25:38.909,-0.03,-0.54,-0.1,-0.01,-0.03,0.08,-0.23,-0.01
12:25:38.918,0.02,-0.04,-0.1,0.02,-0.06,-0.42,-0.18,-0.02
12:25:38.927,-0.05,-0.32,0.04,0,0,0.11,0,0
12:25:38.981,-0.03,-0.01,-0.03,0,0.03,0.03,0.02,0
12:25:38.991,0.02,0.01,-0.17,0,0,-0.03,0.01,0.01
12:25:39.002,0.02,0.01,-0.17,0,0,-0.03,0.01,0.01
12:25:39.015,0.02,0.11,0.17,0.03,0,-0.1,0,0.01
12:25:39.027,0.02,0.11,0.17,0.03,0,-0.1,0,0.01
12:25:39.039,0.15,0.98,0.07,-0.02,0.02,-0.23,0.05,0
12:25:39.088,0.04,0.13,0.11,-0.03,-0.01,-0.2,-0.04,-0.01
12:25:39.098,0.01,0.13,0,-0.02,-0.03,0.1,-0.34,-0.05
12:25:39.111,0.02,-0.17,0.25,0,0.02,0.08,0.02,0.02
12:25:39.121,0.02,-0.17,0.25,0,0.02,0.08,0.02,0.02
12:25:39.132,-0.11,-0.39,-0.18,0,0.02,0.17,0.18,-0.02
12:25:39.141,-0.11,-0.39,-0.18,0,0.02,0.17,0.18,-0.02
12:25:39.150,-0.01,-0.08,-0.14,-0.03,-0.01,-0.14,-0.41,-0.01
12:25:39.190,0,-0.59,-0.31,-0.01,-0.01,-0.02,0,-0.01
12:25:39.199,0,-0.59,-0.31,-0.01,-0.01,-0.02,0,-0.01
12:25:39.210,-0.07,0.08,0.04,0,-0.01,0.03,0.02,0
12:25:39.222,-0.07,0.08,0.04,0,-0.01,0.03,0.02,0
12:25:39.234,0.04,-0.14,0.06,0,0,-0.45,0.16,0
12:25:39.246,0.06,0.14,-0.09,-0.03,-0.04,-0.04,-0.06,-0.02
12:25:39.256,0.03,0.21,0.06,0.01,0.01,-0.19,0,0.01
12:25:39.297,0.03,-0.2,0.06,0,0,0.35,0.02,0
12:25:39.309,0,-0.19,-0.23,0,-0.01,0.03,-0.12,-0.01
12:25:39.319,0,-0.19,-0.23,0,-0.01,0.03,-0.12,-0.01
12:25:39.332,0.16,0,-0.18,-0.04,0.01,0.12,0.08,0
12:25:39.346,0.09,-0.57,-0.1,-0.03,-0.04,-0.08,-0.04,-0.02
12:25:39.357,0.18,1.2,0.39,0,-0.02,0.02,0.04,0.04
12:25:39.369,-0.04,-0.05,-0.05,-0.02,-0.02,0,-0.25,-0.04
12:25:39.417,-0.06,-0.26,-0.22,-0.01,0.01,0.1,0.14,0
12:25:39.428,-0.18,-0.92,-0.04,0,-0.03,0.06,0.01,-0.05
12:25:39.438,-0.18,-0.92,-0.04,0,-0.03,0.06,0.01,-0.05
12:25:39.448,-0.18,-0.92,-0.04,0,-0.03,0.06,0.01,-0.05
12:25:39.459,0.06,0.71,-0.26,0,-0.01,-0.28,0,-0.03
12:25:39.470,-0.26,-0.24,0,-0.04,-0.05,0.16,-0.1,-0.05
12:25:39.518,-0.02,-0.84,0.08,0,0.02,0.19,0.05,0
12:25:39.531,-0.09,-0.54,0.13,-0.02,-0.01,-0.09,-0.02,0
12:25:39.542,-0.09,-0.54,0.13,-0.02,-0.01,-0.09,-0.02,0
12:25:39.553,0.05,0.42,0.06,0,0,0.39,0.1,0
12:25:39.564,0.05,0.42,0.06,0,0,0.39,0.1,0
12:25:39.574,0.01,-0.07,-0.03,0,-0.01,-0.28,-0.23,-0.05
12:25:39.584,0.03,0.24,-0.21,-0.01,0,-0.14,0.01,0
12:25:39.633,0.04,0.02,-0.09,0,0.01,-0.12,0.03,0.05
12:25:39.643,0.04,0.02,-0.09,0,0.01,-0.12,0.03,0.05
12:25:39.657,0.08,0.1,-0.05,0,0,0.25,0.16,0
12:25:39.670,0.02,-0.13,0.32,0,0,-0.1,-0.06,0
12:25:39.680,0.02,-0.13,0.32,0,0,-0.1,-0.06,0
12:25:39.691,-0.01,0.17,-0.22,-0.02,-0.01,0.02,-0.01,0.03
12:25:39.760,0.17,0.29,0.03,0.02,0.04,0.06,0.3,0.06
12:25:39.771,0.13,0.23,-0.25,0.01,-0.01,-0.07,-0.05,0.01
12:25:39.787,0.2,0.07,0.09,0,0,0.07,0.08,0.01
12:25:39.798,0.17,-0.4,0.04,0,0,0.07,-0.06,0.01
12:25:39.841,-0.09,0.01,-0.02,-0.01,0,0.03,0.04,-0.03
12:25:39.854,-0.02,0.13,0.01,-0.01,-0.02,0,0.08,-0.01
12:25:39.864,-0.02,0.13,0.01,-0.01,-0.02,0,0.08,-0.01
12:25:39.874,0.03,0.38,-0.01,0.02,0.02,-0.08,-0.03,0.01
12:25:39.885,0.03,0.38,-0.01,0.02,0.02,-0.08,-0.03,0.01
12:25:39.893,-0.03,-0.68,0.03,0,-0.01,-0.02,-0.11,-0.03
12:25:39.908,0.1,0.06,-0.05,-0.01,0,0,0.13,0.01
12:25:39.951,0.01,0.25,0.1,-0.02,0.01,0.24,0.1,0.02
12:25:39.966,-0.06,0.69,0.06,0,0,0,-0.09,-0.01
12:25:39.980,-0.06,0.69,0.06,0,0,0,-0.09,-0.01
12:25:39.990,-0.06,0.69,0.06,0,0,0,-0.09,-0.01
12:25:40.001,-0.11,-0.53,-0.56,-0.01,0,-0.11,-0.2,-0.01
12:25:40.010,-0.11,-0.53,-0.56,-0.01,0,-0.11,-0.2,-0.01
12:25:40.021,-0.05,0.23,0.27,0,0,0.5,0.13,-0.01
12:25:40.073,-0.04,-0.08,-0.04,-0.04,-0.03,0.04,-0.05,-0.01
12:25:40.085,0.04,0.05,0.19,0,0,0,-0.01,0.02
12:25:40.097,-0.1,0.16,0.14,-0.01,-0.05,-0.09,-0.14,-0.04
12:25:40.109,0.04,0.39,-0.26,0.01,0.01,-0.45,-0.02,-0.03
12:25:40.118,0.04,0.39,-0.26,0.01,0.01,-0.45,-0.02,-0.03
12:25:40.127,-0.12,-0.35,0.03,-0.01,0,-0.1,0,-0.02
12:25:40.170,0.13,-0.13,0.1,0.02,0,-0.16,-0.07,0.05
12:25:40.179,0.13,-0.13,0.1,0.02,0,-0.16,-0.07,0.05
12:25:40.188,0.13,-0.13,0.1,0.02,0,-0.16,-0.07,0.05
12:25:40.200,0,-0.44,-0.08,-0.01,-0.03,-0.07,-0.13,0
12:25:40.211,-0.05,-0.11,0.12,0.02,0,-0.03,0,0
12:25:40.221,-0.05,-0.11,0.12,0.02,0,-0.03,0,0
12:25:40.230,-0.04,0.21,0,0,-0.01,0.04,-0.03,-0.03
12:25:40.273,0.09,0.85,0.21,-0.01,0,-0.13,-0.27,-0.04
12:25:40.285,0.09,0.85,0.21,-0.01,0,-0.13,-0.27,-0.04
12:25:40.296,-0.33,-0.29,0,0.01,0,-0.07,-0.11,-0.04
12:25:40.307,-0.33,-0.29,0,0.01,0,-0.07,-0.11,-0.04
12:25:40.319,0.06,-0.06,-0.02,0.01,0.04,-0.1,0.06,0.02
12:25:40.328,-0.05,-0.37,-0.08,0,0,-0.03,-0.13,-0.01
12:25:40.340,0.03,-0.12,-0.02,0.01,0,0.01,0.06,0.03
12:25:40.350,0.23,-0.05,-0.11,0,0,-0.17,-0.03,0
12:25:40.394,0.04,0.16,-0.03,-0.02,-0.02,-0.09,0.1,0.03
12:25:40.409,0.05,0.48,0,-0.01,-0.03,0.06,-0.32,0
12:25:40.424,0.05,0.48,0,-0.01,-0.03,0.06,-0.32,0
12:25:40.438,-0.17,-0.81,-0.19,-0.01,-0.05,0.12,0.07,-0.01
12:25:40.450,-0.23,-0.32,0.01,0.02,0.01,0.2,0.06,0
12:25:40.496,0.01,0.08,0.01,-0.02,-0.01,0.04,0,-0.02
12:25:40.512,0.05,0.08,-0.08,-0.01,-0.01,-0.08,-0.04,0
12:25:40.524,-0.04,-0.39,-0.16,0,-0.01,0.04,-0.11,0.01
12:25:40.536,-0.05,0.04,-0.12,-0.04,-0.07,-0.19,-0.01,-0.02
12:25:40.548,-0.05,0.04,-0.12,-0.04,-0.07,-0.19,-0.01,-0.02
12:25:40.557,0.09,0.21,0.1,0.03,0.04,0,0.07,0.02
12:25:40.598,-0.01,-0.39,-0.17,-0.02,-0.01,-0.01,0.01,-0.03
12:25:40.607,-0.01,-0.39,-0.17,-0.02,-0.01,-0.01,0.01,-0.03
12:25:40.618,0.09,0.32,0.18,0,0.04,0.23,0.12,0.07
12:25:40.628,0.09,0.32,0.18,0,0.04,0.23,0.12,0.07
12:25:40.639,-0.05,0.07,0.12,0,0,-0.05,-0.13,-0.01
12:25:40.649,0.1,-0.23,-0.01,0.02,0,0.07,0.23,0.03
12:25:40.658,0.1,-0.23,-0.01,0.02,0,0.07,0.23,0.03
12:25:40.668,0.1,-0.23,-0.01,0.02,0,0.07,0.23,0.03
12:25:40.709,-0.32,-0.03,0.01,0,-0.04,-0.34,-0.21,-0.03
12:25:40.719,-0.32,-0.03,0.01,0,-0.04,-0.34,-0.21,-0.03
12:25:40.728,-0.32,-0.03,0.01,0,-0.04,-0.34,-0.21,-0.03
12:25:40.738,0.14,0.27,0.12,0,0,0,0.02,0
12:25:40.752,0.14,0.27,0.12,0,0,0,0.02,0
12:25:40.762,0.01,0.08,0.05,0.01,0,0.07,0.04,0.01
12:25:40.771,-0.03,-0.56,-0.07,-0.03,-0.02,-0.03,-0.09,-0.05
12:25:40.781,-0.01,0,0.08,-0.01,-0.03,0.2,0.03,-0.01
12:25:40.837,0.06,0.27,-0.03,0,-0.04,0.11,-0.15,-0.02
12:25:40.848,0.06,0.27,-0.03,0,-0.04,0.11,-0.15,-0.02
12:25:40.865,0.1,0.33,-0.03,0,0,-0.3,0.07,-0.01
12:25:40.878,-0.07,0.48,0,0.01,0,-0.03,-0.09,-0.01
12:25:40.889,0,0.07,0,0,0.01,-0.22,0.12,0.02
12:25:40.937,0.32,-0.18,-0.02,0,0.02,0.29,0.01,0.04
12:25:40.947,0.32,-0.18,-0.02,0,0.02,0.29,0.01,0.04
12:25:40.957,0.07,0.01,0.24,0,0,0.01,-0.02,-0.02
12:25:40.972,-0.04,0.06,-0.11,0,0.01,-0.07,0.04,0
12:25:40.983,-0.04,0.06,-0.11,0,0.01,-0.07,0.04,0
12:25:40.993,-0.04,0.06,-0.11,0,0.01,-0.07,0.04,0
12:25:41.002,-0.04,-0.29,0,0,-0.07,0.29,0.03,0
12:25:41.045,-0.11,0.01,-0.05,0,0,-0.14,0.1,-0.03
12:25:41.055,0.06,0.5,-0.15,-0.01,-0.02,-0.01,-0.17,0
12:25:41.064,0.06,0.5,-0.15,-0.01,-0.02,-0.01,-0.17,0
12:25:41.077,-0.02,-0.38,0.06,-0.01,0,-0.27,0.02,-0.01
12:25:41.090,-0.01,0.32,0.05,0.01,0,-0.21,0.11,0
12:25:41.102,-0.01,-0.25,-0.02,-0.01,0,-0.07,0,-0.02
12:25:41.112,-0.07,-0.69,-0.16,-0.02,0.01,-0.01,-0.04,0
12:25:41.159,0.05,-0.25,-0.06,0,0,0.08,0.1,0
12:25:41.168,0.05,-0.25,-0.06,0,0,0.08,0.1,0
12:25:41.180,0.03,0.95,0.14,0.01,0,0.06,-0.01,0
12:25:41.190,-0.01,-0.32,0.13,0,0.02,-0.07,0.07,0.01
12:25:41.204,-0.01,-0.32,0.13,0,0.02,-0.07,0.07,0.01
12:25:41.220,0,-0.05,-0.16,0,-0.01,0.04,-0.13,0.02
12:25:41.272,0.11,-0.5,0,-0.02,-0.01,0.17,0.09,-0.03
12:25:41.286,0.11,-0.5,0,-0.02,-0.01,0.17,0.09,-0.03
12:25:41.298,0.05,0.23,-0.04,0,0.02,-0.27,0.03,0
12:25:41.310,-0.15,0,0.04,0,0,0.22,-0.03,-0.02
12:25:41.325,-0.08,0,0.3,0,0,0.02,-0.04,0
12:25:41.366,-0.2,-0.31,-0.14,-0.02,-0.02,-0.19,-0.02,-0.04
12:25:41.379,-0.1,-0.31,0.08,0.03,0.04,0.03,0.13,0
12:25:41.392,-0.09,-0.26,-0.08,-0.01,-0.01,-0.12,-0.02,-0.04
12:25:41.402,0.1,-0.06,0.2,0,-0.04,-0.05,0.03,-0.01
12:25:41.413,0.1,-0.06,0.2,0,-0.04,-0.05,0.03,-0.01
12:25:41.426,-0.24,-0.46,-0.2,0.01,0,0.41,0.02,0
12:25:41.438,0.06,0.23,-0.07,0.01,0.01,0.34,-0.13,0.04
12:25:41.485,0.04,1.13,-0.15,-0.01,-0.01,0.27,0.1,-0.01
12:25:41.497,-0.03,-0.13,-0.25,-0.02,-0.04,-0.08,-0.14,0
12:25:41.511,0.01,-0.26,0.12,0.01,0.03,-0.11,0.11,0.02
12:25:41.523,0.01,-0.26,0.12,0.01,0.03,-0.11,0.11,0.02
12:25:41.533,0.25,0.08,-0.07,-0.03,-0.04,0.38,-0.03,0.01
12:25:41.591,0.11,-0.1,0,0,0,-0.03,-0.01,0.02
12:25:41.602,-0.1,-0.94,0.04,0.01,-0.02,-0.07,-0.09,-0.04
12:25:41.615,-0.1,-0.94,0.04,0.01,-0.02,-0.07,-0.09,-0.04
12:25:41.626,0.07,-0.17,-0.1,-0.02,-0.04,0.27,-0.01,0
12:25:41.641,-0.78,0.15,0.05,0,0.03,-0.06,0.18,-0.06
12:25:41.654,0.13,0.44,0,0,0.01,-0.07,-0.18,0.02
12:25:41.697,0.03,0.08,-0.13,-0.01,0,-0.05,0.04,0
12:25:41.711,0.03,0.08,-0.13,-0.01,0,-0.05,0.04,0
12:25:41.722,0.01,0.08,-0.02,0,-0.04,-0.01,-0.13,0
12:25:41.732,0.01,0.08,-0.02,0,-0.04,-0.01,-0.13,0
12:25:41.745,0.53,0.63,0.03,0,0.01,-0.07,0.14,0.03
12:25:41.757,0.03,0.18,0.27,-0.01,0.02,-0.07,0.07,0
12:25:41.809,0.06,0.24,-0.32,-0.03,-0.02,0.07,0.1,0.03
12:25:41.822,-0.03,-0.04,0.03,0,0,0.14,0.14,-0.02
12:25:41.833,0.03,0.64,0.05,-0.01,0.01,0,0.15,0.03
12:25:41.843,0.01,0.04,0.06,0,0.02,-0.05,0.02,0.02
12:25:41.853,0.01,0.04,0.06,0,0.02,-0.05,0.02,0.02
12:25:41.865,-0.33,-0.05,0.16,0,0,-0.11,0.11,0
12:25:41.875,0.13,0.05,0,0.03,0.04,0.08,0.26,0.02
12:25:41.914,0.01,0.04,-0.06,-0.01,-0.07,0.09,0.01,-0.03
12:25:41.926,0.06,-0.02,0.01,0,0.03,-0.07,-0.03,0.02
12:25:41.939,0.03,-0.34,0.22,-0.01,0.03,-0.08,0,0
12:25:41.948,0.03,-0.34,0.22,-0.01,0.03,-0.08,0,0
12:25:41.957,-0.09,-0.16,-0.43,-0.04,-0.04,-0.28,-0.15,-0.01
12:25:41.966,-0.09,-0.16,-0.43,-0.04,-0.04,-0.28,-0.15,-0.01
12:25:41.978,0.09,0.12,0.11,0.02,0.01,0.39,-0.05,0.02
12:25:42.025,-0.32,-0.59,-0.28,0,0,-0.05,-0.09,-0.01
12:25:42.037,0.14,0.03,0.02,-0.01,-0.02,0,0,0
12:25:42.049,0.14,0.03,0.02,-0.01,-0.02,0,0,0
12:25:42.062,0.03,0,0.08,0,0,-0.08,0,-0.01
12:25:42.073,0.07,0.1,-0.18,-0.02,0,-0.06,-0.05,0
12:25:42.082,0.07,0.1,-0.18,-0.02,0,-0.06,-0.05,0
12:25:42.092,0.09,0.28,0.23,0.02,0.02,0.1,0.11,0
12:25:42.140,-0.28,-0.16,-0.11,-0.01,0.02,-0.06,-0.03,-0.02
12:25:42.152,-0.28,-0.16,-0.11,-0.01,0.02,-0.06,-0.03,-0.02
12:25:42.164,0.02,0.09,-0.01,0,-0.02,0.05,0.07,0
12:25:42.175,0.33,0.03,-0.06,-0.02,-0.02,-0.05,-0.16,-0.03
12:25:42.187,0.03,-0.17,0,0,-0.02,0.28,0.23,0
12:25:42.196,-0.06,0.17,0.04,0,0,-0.06,0.06,0
12:25:42.205,-0.06,0.17,0.04,0,0,-0.06,0.06,0
12:25:42.252,0.07,-0.01,0.13,0.02,0,-0.13,-0.06,0
12:25:42.263,0.02,-0.21,-0.25,-0.01,0.01,0.27,-0.01,-0.01
12:25:42.272,0.02,-0.21,-0.25,-0.01,0.01,0.27,-0.01,-0.01
12:25:42.284,0,0.11,0.16,0,0,-0.16,-0.1,0.01
12:25:42.299,-0.07,0.04,0.08,0,0.01,-0.25,0.08,0
12:25:42.310,0,-0.45,-0.04,-0.02,-0.02,0.38,0.06,-0.01
12:25:42.351,0.07,1.18,0.07,0,0,-0.04,0.06,0
12:25:42.364,-0.11,0.2,0.03,0.01,-0.02,-0.07,-0.1,0
12:25:42.373,-0.1,-0.18,0.34,-0.01,0,-0.1,0.01,0
12:25:42.385,0.05,0.24,0.06,-0.01,-0.08,-0.2,-0.05,0.02
12:25:42.395,0.05,0.24,0.06,-0.01,-0.08,-0.2,-0.05,0.02
12:25:42.409,0.09,0.11,0.01,0,0.04,-0.24,-0.02,0
12:25:42.421,0.25,-0.05,-0.37,0,0.01,-0.1,0,0.01
12:25:42.466,0.04,0.75,0.05,0,0.02,0.14,0.03,0
12:25:42.478,-0.03,-0.19,-0.07,-0.03,-0.02,0.13,-0.29,-0.08
12:25:42.489,-0.03,-0.19,-0.07,-0.03,-0.02,0.13,-0.29,-0.08
12:25:42.499,0,0.37,0.08,0,-0.04,0.28,0.14,0
12:25:42.510,0,0.37,0.08,0,-0.04,0.28,0.14,0
12:25:42.523,-0.03,-0.25,0.08,0.01,0,-0.44,0,-0.02
12:25:42.564,-0.13,-0.5,0.22,0,-0.03,-0.05,-0.19,-0.03
12:25:42.575,-0.13,-0.5,0.22,0,-0.03,-0.05,-0.19,-0.03
12:25:42.592,0.06,0.07,0.04,-0.01,-0.02,0.15,0.05,0.01
12:25:42.602,-0.05,-0.17,-0.2,0.01,0.03,-0.19,-0.03,-0.02
12:25:42.613,0,-0.06,-0.27,-0.05,-0.06,-0.01,0.05,0
12:25:42.622,0,-0.03,-0.03,0,0.05,-0.03,0,0.02
12:25:42.632,0.14,0,0.06,-0.01,-0.05,0.21,-0.1,0
12:25:42.673,-0.14,-0.28,-0.21,0,0.01,0.21,0.17,0.01
12:25:42.683,-0.14,-0.28,-0.21,0,0.01,0.21,0.17,0.01
12:25:42.695,-0.14,-0.28,-0.21,0,0.01,0.21,0.17,0.01
12:25:42.705,0.17,0.15,0.12,0,0,0.09,0.21,0.03
12:25:42.716,0.17,0.15,0.12,0,0,0.09,0.21,0.03
12:25:42.726,0.09,0.07,0.09,-0.02,0.01,-0.45,0.01,0
12:25:42.735,-0.11,-0.43,0.02,0,0,0.04,0.07,0.04
12:25:42.744,-0.11,-0.43,0.02,0,0,0.04,0.07,0.04
12:25:42.789,-0.08,0.12,-0.15,-0.03,-0.07,-0.34,-0.09,-0.04
12:25:42.799,-0.33,0.1,0.05,0.01,0.01,-0.12,0.17,-0.03
12:25:42.810,-0.33,0.1,0.05,0.01,0.01,-0.12,0.17,-0.03
12:25:42.822,0.07,-0.11,-0.15,-0.01,-0.03,0.1,-0.19,0.02
12:25:42.831,0.07,-0.11,-0.15,-0.01,-0.03,0.1,-0.19,0.02
12:25:42.839,-0.06,-0.24,-0.11,-0.01,0,0.22,0.05,0
12:25:42.849,0,-0.25,-0.07,0,0,0.03,0.09,0
12:25:42.895,0.01,-0.17,-0.03,0,0,0.11,0.03,0
12:25:42.907,0.04,-0.01,0.08,0.01,-0.02,-0.51,0,-0.01
12:25:42.916,-0.02,0.14,0.09,0.01,0.02,0.09,0.03,0.01
12:25:42.927,-0.02,0.14,0.09,0.01,0.02,0.09,0.03,0.01
12:25:42.937,-0.03,-0.14,0.02,0,0,-0.24,0.02,-0.02
12:25:42.948,-0.03,-0.14,0.02,0,0,-0.24,0.02,-0.02
12:25:42.960,-0.27,-0.09,-0.07,-0.01,0,0.15,0.11,0.02
12:25:43.002,0.03,0,-0.23,-0.02,-0.01,0.03,0.04,0
12:25:43.014,0.03,0,-0.23,-0.02,-0.01,0.03,0.04,0
12:25:43.024,0.04,-0.33,0.05,0.01,0,0.21,-0.02,0.03
12:25:43.035,0.08,0.09,0,-0.01,-0.02,-0.02,-0.05,-0.01
12:25:43.046,0.08,0.09,0,-0.01,-0.02,-0.02,-0.05,-0.01
12:25:43.055,0.08,0.09,0,-0.01,-0.02,-0.02,-0.05,-0.01
12:25:43.063,0.02,-0.18,-0.07,-0.04,0,-0.14,-0.03,-0.03
12:25:43.073,-0.14,0.01,0.07,-0.01,-0.01,0.25,-0.01,-0.01
12:25:43.116,0.17,0.05,-0.13,0,0,0.01,0,0.01
12:25:43.129,0.17,0.05,-0.13,0,0,0.01,0,0.01
12:25:43.141,0.11,0.15,0.18,0,-0.01,0.01,0.03,0
12:25:43.152,0.11,0.15,0.18,0,-0.01,0.01,0.03,0
12:25:43.162,-0.06,0.02,0.02,0.01,0,0.11,0.04,0
12:25:43.170,-0.06,0.02,0.02,0.01,0,0.11,0.04,0
12:25:43.178,-0.03,0.21,0.06,-0.01,0,0.22,0.04,-0.01
12:25:43.217,0,-0.27,-0.05,0,0,0.03,0.12,0.03
12:25:43.226,-0.04,0.05,-0.05,0,0.01,0.05,0.01,0.01
12:25:43.238,0,0.14,-0.12,0.02,0.02,-0.12,0.03,0
12:25:43.251,0,0.14,-0.12,0.02,0.02,-0.12,0.03,0
12:25:43.262,0,-0.08,0.01,0,0,0.07,-0.04,0
12:25:43.271,0,-0.08,0.01,0,0,0.07,-0.04,0
12:25:43.281,-0.04,0.19,-0.01,-0.02,-0.01,-0.06,0,0.01
12:25:43.291,0.06,0.17,0.08,0,0,0.11,0.2,0.03
12:25:43.337,0,0,0,0,0,-0.19,0.02,0
12:25:43.346,0.01,-0.2,0.1,0,0,0.05,0.18,0.03
12:25:43.359,-0.03,-0.02,-0.01,0,0,0.27,-0.02,0
12:25:43.371,-0.03,-0.02,-0.01,0,0,0.27,-0.02,0
12:25:43.382,0.02,0.02,0.15,0.02,0.01,-0.11,0.02,0.04
12:25:43.392,0.02,0.02,0.15,0.02,0.01,-0.11,0.02,0.04
12:25:43.400,0.13,-0.07,0.08,0,0.05,0.26,0.07,0.01
12:25:43.469,-0.07,-0.05,0.08,-0.02,-0.02,-0.58,-0.03,0
12:25:43.487,-0.02,-0.07,-0.04,0,-0.01,-0.02,-0.07,-0.02
12:25:43.498,-0.02,-0.07,-0.04,0,-0.01,-0.02,-0.07,-0.02
12:25:43.549,0.06,-0.15,-0.07,-0.01,0,0.46,0.05,0.03
12:25:43.560,-0.02,0.03,-0.25,-0.02,0.02,0.12,-0.03,-0.01
12:25:43.569,0.05,0.8,-0.05,-0.02,0,-0.28,-0.15,-0.02
12:25:43.583,-0.12,-0.24,-0.15,-0.02,-0.04,-0.16,-0.4,-0.02
12:25:43.594,-0.12,-0.24,-0.15,-0.02,-0.04,-0.16,-0.4,-0.02
12:25:43.609,-0.09,0.08,0.05,-0.01,-0.01,-0.08,0,-0.01
12:25:43.653,0.03,-0.17,-0.04,0,0.02,-0.04,0.13,-0.01
12:25:43.663,-0.01,-0.35,0,-0.01,-0.02,-0.37,-0.04,-0.04
12:25:43.678,-0.01,-0.35,0,-0.01,-0.02,-0.37,-0.04,-0.04
12:25:43.689,0.01,-0.1,0.04,0,0.03,0.32,0.06,0.05
12:25:43.699,0.01,-0.1,0.04,0,0.03,0.32,0.06,0.05
12:25:43.709,0.03,0.03,0.11,0,0,-0.02,0.01,0
12:25:43.717,0,0.04,0.01,0,0.02,0.07,0.18,0.01
12:25:43.765,0.1,-0.37,0.07,0.01,0.02,0.02,-0.04,0.01
12:25:43.779,0.04,0.32,0.03,-0.02,-0.01,0.26,-0.09,0.02
12:25:43.791,-0.05,-0.06,-0.03,-0.01,-0.03,-0.09,0,-0.01
12:25:43.802,0,0,-0.12,0,-0.03,-0.08,-0.01,-0.01
12:25:43.812,0,0,-0.12,0,-0.03,-0.08,-0.01,-0.01
12:25:43.822,0,-0.1,0.03,-0.01,0,0,-0.04,-0.01
12:25:43.831,0.09,-0.1,-0.08,0,-0.01,0.34,0.14,0.03
12:25:43.876,-0.03,0.02,-0.04,-0.01,0.01,0.12,-0.19,0
12:25:43.886,-0.08,-0.08,0.17,0,-0.01,0.05,-0.26,-0.06
12:25:43.895,-0.08,-0.08,0.17,0,-0.01,0.05,-0.26,-0.06
12:25:43.907,-0.07,0.28,-0.16,0,0.01,0.04,0,0
12:25:43.919,-0.07,0.28,-0.16,0,0.01,0.04,0,0
12:25:43.929,0.06,-0.08,0.21,0.01,0,-0.03,0.12,0
12:25:43.939,0.06,-0.08,0.21,0.01,0,-0.03,0.12,0
12:25:43.983,-0.05,0.02,-0.24,-0.01,0,0.02,0,0
12:25:43.992,-0.05,0.02,-0.24,-0.01,0,0.02,0,0
12:25:44.001,-0.03,-0.2,-0.04,-0.04,-0.03,-0.12,-0.15,-0.06
12:25:44.011,0.15,-0.11,-0.02,0,-0.01,0.08,0.02,0.03
12:25:44.023,0.05,0,-0.02,-0.02,-0.01,0,-0.01,-0.02
12:25:44.038,0.05,0,-0.02,-0.02,-0.01,0,-0.01,-0.02
12:25:44.048,0.15,1.04,0.18,0,0.01,-0.15,-0.01,-0.04
12:25:44.093,0.05,0.04,-0.13,0,0.01,-0.07,0,0.02
12:25:44.106,0.05,0.04,-0.13,0,0.01,-0.07,0,0.02
12:25:44.117,-0.02,-0.14,-0.14,-0.01,0,0.32,-0.04,0
12:25:44.127,0.11,-0.03,-0.01,-0.01,-0.01,0.17,0.01,0
12:25:44.138,0,-0.01,-0.16,0.01,-0.02,-0.16,0.11,0.06
12:25:44.148,0.11,-0.28,0.01,-0.01,-0.02,-0.28,-0.3,-0.03
12:25:44.199,-0.03,0.05,0.13,0,-0.02,0.02,0.05,0.01
12:25:44.209,-0.14,-0.11,0.04,0,0.02,-0.17,0.1,-0.02
12:25:44.219,0.21,-0.02,-0.04,-0.02,0,0.01,0.04,0
12:25:44.231,-0.06,-0.11,-0.11,0,0.02,-0.13,0.03,-0.01
12:25:44.245,0.02,-0.04,0.09,0,-0.02,0.06,0,0.01
12:25:44.254,0.02,-0.04,0.09,0,-0.02,0.06,0,0.01
12:25:44.266,-0.08,-0.72,-0.05,-0.01,-0.01,-0.2,-0.12,-0.02
12:25:44.311,0.14,-0.02,0.02,0,0,0.1,0.03,0
12:25:44.321,-0.06,0.02,-0.04,-0.02,0,-0.02,0.1,-0.01
12:25:44.333,-0.03,0.1,0.08,0,0,0.03,-0.06,0
12:25:44.346,-0.15,-0.02,0.03,0,-0.01,-0.13,0.18,-0.01
12:25:44.358,-0.15,-0.02,0.03,0,-0.01,-0.13,0.18,-0.01
12:25:44.370,-0.3,0.13,-0.21,-0.01,-0.02,0,0.2,-0.03
12:25:44.381,-0.11,-1.04,-0.06,-0.02,0.01,-0.07,-0.17,-0.02
12:25:44.430,0.01,0.02,0.16,0,-0.03,0.4,0.03,0
12:25:44.441,0.01,0.02,0.16,0,-0.03,0.4,0.03,0
12:25:44.455,0.05,0.13,-0.09,0,-0.02,-0.04,0.08,0.04
12:25:44.468,0.1,0.17,0.01,0,0.02,-0.12,0.1,0
12:25:44.483,-0.21,0.25,0,-0.01,-0.03,-0.15,-0.02,0
12:25:44.526,0,0,0.02,-0.01,0.01,0,0.05,0.02
12:25:44.541,0.02,0.05,-0.01,-0.02,-0.05,-0.16,-0.12,-0.06
12:25:44.555,0.01,0.26,0.02,0,-0.03,0.09,-0.24,-0.03
12:25:44.564,0.06,-0.11,-0.05,0,0.02,0.23,-0.02,0
12:25:44.573,0.01,-0.06,0.04,0,0,0.37,0.09,0.01
12:25:44.583,-0.05,0.02,0.02,0.01,0,-0.15,0.02,0.02
12:25:44.595,0.03,0.03,0.01,0,-0.02,-0.09,0.14,-0.01
12:25:44.650,-0.04,0.06,-0.07,0,0.02,-0.08,0.06,0
12:25:44.664,-0.11,-0.1,0.01,0,-0.03,-0.26,-0.14,-0.04
12:25:44.675,-0.11,-0.1,0.01,0,-0.03,-0.26,-0.14,-0.04
12:25:44.684,-0.03,0.04,-0.09,0,0,0.13,0.15,0
12:25:44.693,0.07,0.1,0,0.01,0.03,0.08,0.17,0.03
12:25:44.704,-0.08,0.04,-0.1,-0.01,-0.01,-0.01,-0.14,-0.05
12:25:44.747,0,-0.1,0.03,-0.01,-0.01,-0.04,0.13,0.04
12:25:44.759,-0.07,0.06,-0.02,0,0.02,-0.06,0,0.02
12:25:44.773,-0.16,0.05,-0.05,0,-0.01,0,0,0
12:25:44.784,0.06,0,0.04,0,0.01,-0.03,-0.02,0
12:25:44.794,0.06,0,0.04,0,0.01,-0.03,-0.02,0
12:25:44.804,0.14,0.01,0.05,0,0,0.12,0,0
12:25:44.816,0.02,0.01,-0.11,-0.02,-0.02,-0.05,0.04,0
12:25:44.862,-0.02,-0.03,0.04,0.02,0,-0.35,0.04,-0.02
12:25:44.877,0,0.03,0.19,-0.02,-0.04,-0.06,-0.14,-0.04
12:25:44.890,0.02,-0.28,-0.06,0,0.04,0.03,0.18,0.07
12:25:44.901,0.02,-0.28,-0.06,0,0.04,0.03,0.18,0.07
12:25:44.912,-0.02,0.15,-0.07,0,0,0.19,0,-0.02
12:25:44.925,-0.06,-0.01,-0.03,-0.01,0.01,0.02,0,-0.01
12:25:44.974,0.03,-0.02,-0.03,0,-0.03,-0.17,-0.12,0
12:25:44.987,0.17,0.03,0.17,-0.01,0,0.23,0.1,0
12:25:45.000,-0.02,0.03,0.03,-0.02,0,0.15,-0.1,0
12:25:45.010,0.08,-0.17,-0.06,0,0.01,0,-0.02,0
12:25:45.022,-0.13,-0.01,0,-0.02,-0.03,-0.02,0,-0.03
12:25:45.031,-0.13,-0.01,0,-0.02,-0.03,-0.02,0,-0.03
12:25:45.071,-0.28,0,-0.11,0.01,0,0.04,0.17,0.01
12:25:45.082,-0.06,-0.04,0.03,-0.01,-0.04,-0.27,0.09,0
12:25:45.092,-0.03,0.04,0,0,0.02,0.07,-0.01,-0.01
12:25:45.103,-0.03,0.04,0,0,0.02,0.07,-0.01,-0.01
12:25:45.114,0.03,0.01,-0.05,-0.01,0,-0.14,-0.02,-0.03
12:25:45.124,0.1,0.13,-0.08,0,0,-0.08,-0.01,0.01
12:25:45.135,0.1,-0.24,-0.04,0.01,0,0.24,0.01,0.02
12:25:45.144,-0.14,0.16,0.04,0,0.01,-0.07,-0.11,-0.01
12:25:45.185,0.07,0.04,0.1,0,0,-0.14,0.06,0.02
12:25:45.195,-0.03,0.09,0,-0.01,-0.01,0.05,0,0
12:25:45.205,0.15,0.04,-0.07,0,0,0.09,0.07,0.01
12:25:45.215,0.15,0.04,-0.07,0,0,0.09,0.07,0.01
12:25:45.228,0.23,0,0.04,0.01,0,-0.02,-0.1,0
12:25:45.241,0,0.05,0,-0.01,0,0.19,-0.17,-0.01
12:25:45.252,-0.05,-0.01,0.01,0,0.01,-0.05,0,0
12:25:45.296,-0.1,-0.09,0,0,-0.01,0.1,0.1,0.02
12:25:45.308,0.05,-0.06,0.19,0,0,0.08,0.04,0
12:25:45.318,0,-0.05,0.03,0.03,0.05,-0.05,0.09,0.04
12:25:45.327,-0.11,0,0.06,0,0,-0.27,-0.08,-0.03
12:25:45.338,-0.11,0,0.06,0,0,-0.27,-0.08,-0.03
12:25:45.350,-0.03,-0.04,-0.1,0,-0.02,0,-0.14,-0.01
12:25:45.398,-0.27,0.13,-0.02,0,0.01,-0.05,0.05,-0.02
12:25:45.408,0.05,0,-0.01,0,-0.01,-0.01,0.06,-0.02
12:25:45.418,0.05,0,-0.01,0,-0.01,-0.01,0.06,-0.02
12:25:45.427,0.05,-0.02,0.02,0,-0.01,-0.23,-0.04,0
12:25:45.437,0.05,-0.02,0.02,0,-0.01,-0.23,-0.04,0
12:25:45.446,-0.06,-0.02,0.02,0,-0.03,0.12,0.02,-0.06
12:25:45.457,-0.06,-0.02,0.02,0,-0.03,0.12,0.02,-0.06
12:25:45.469,0.03,-0.06,-0.03,0,0.02,0.09,0.07,-0.01
12:25:45.512,-0.11,-0.02,-0.05,0,0,-0.14,-0.16,0.01
12:25:45.526,0.13,0.06,0.01,0,0,0.11,0.14,0.05
12:25:45.536,0.13,0.06,0.01,0,0,0.11,0.14,0.05
12:25:45.546,0.13,0.06,0.01,0,0,0.11,0.14,0.05
12:25:45.560,0.05,-0.05,-0.01,0,0,0.22,0.08,0
12:25:45.571,0.01,-0.04,0.03,0,-0.04,-0.48,-0.06,-0.02
12:25:45.581,0.06,-0.08,-0.06,0,-0.02,0.26,-0.21,0.03
12:25:45.627,-0.04,0,0.08,0,0.02,0.06,-0.05,0
12:25:45.638,0,0.01,0.02,0.01,0.04,0,0.1,0
12:25:45.648,0,0,0.03,0.02,0,0.11,0,0
12:25:45.658,0,0,0.03,0.02,0,0.11,0,0
12:25:45.671,0.09,0.02,-0.02,-0.02,-0.01,-0.06,-0.22,-0.06
12:25:45.685,-0.01,0.15,0.06,0,0,-0.06,0.07,-0.01
12:25:45.748,-0.04,-0.1,-0.01,-0.02,-0.05,0.25,0.21,-0.03
12:25:45.760,-0.04,-0.1,-0.01,-0.02,-0.05,0.25,0.21,-0.03
12:25:45.769,0.01,-0.04,0.01,0.01,0.01,-0.13,-0.11,0
12:25:45.780,0.01,-0.04,0.01,0.01,0.01,-0.13,-0.11,0
12:25:45.850,0.02,0,-0.01,-0.01,-0.02,-0.24,-0.08,0
12:25:45.862,0.08,0.21,-0.03,0,0,0,-0.11,0.01
12:25:45.875,0.04,0,0.18,-0.02,-0.01,-0.05,-0.05,0.06
12:25:45.885,-0.03,0.01,-0.09,-0.01,0,0,-0.01,-0.02
12:25:45.898,-0.03,0.01,-0.09,-0.01,0,0,-0.01,-0.02
12:25:45.908,0.15,0.01,0.07,0,-0.02,-0.01,-0.02,0
12:25:45.952,0.02,-0.04,-0.15,0,0,0.11,-0.01,0
12:25:45.964,0.02,-0.04,-0.15,0,0,0.11,-0.01,0
12:25:45.977,0.16,-0.03,-0.04,-0.01,0.01,0.06,-0.07,-0.04
12:25:45.988,0.09,-0.15,0,0.01,0,-0.07,-0.06,0
12:25:45.998,-0.28,-0.01,-0.15,0,-0.05,0.11,0.1,0
12:25:46.009,-0.03,-0.09,0.07,0,0,0.1,-0.01,-0.01
12:25:46.053,-0.75,-0.16,0.16,0,0,0.12,-0.17,-0.04
12:25:46.064,-0.01,0.29,0.06,-0.01,-0.03,0.35,0.16,0.02
12:25:46.077,0.16,-0.13,-0.03,0,0,0.08,0.1,0
12:25:46.087,-0.25,-0.21,0.03,0,0.01,-0.13,-0.05,-0.04
12:25:46.096,0.12,0,0.01,-0.01,0.01,0.06,0.16,0.02
12:25:46.105,0.04,-0.01,-0.01,0,0,0.01,0.1,0
12:25:46.115,0.18,0.02,0.07,0,0,-0.04,0.09,0.03
12:25:46.162,-0.06,-0.03,0.06,0,0.01,0.01,-0.15,-0.02
12:25:46.171,0.08,0.04,-0.03,0,0.03,-0.19,-0.2,-0.02
12:25:46.180,0.08,0.04,-0.03,0,0.03,-0.19,-0.2,-0.02
12:25:46.194,0.04,-0.02,0.05,-0.02,0,0,-0.05,0
12:25:46.207,0.1,0.05,-0.02,0,0,0.38,-0.07,-0.01
12:25:46.217,0.1,0.02,-0.03,-0.01,-0.02,0.01,-0.19,0
12:25:46.226,0.25,-0.01,-0.02,0,0,0.11,0.06,0.01
12:25:46.234,0.04,0.05,0.01,0.01,0.01,0.03,0.04,0
12:25:46.280,-0.25,-0.03,-0.02,-0.02,-0.05,0.04,0.01,0
12:25:46.291,-0.28,-0.04,-0.01,0,-0.02,0.08,0.04,0
12:25:46.300,-0.28,-0.04,-0.01,0,-0.02,0.08,0.04,0
12:25:46.310,0,-0.01,-0.16,0,-0.02,0.33,0.04,0.02
12:25:46.327,0,-0.01,0.04,-0.01,0,0.03,-0.04,-0.01
12:25:46.338,0,-0.01,0.04,-0.01,0,0.03,-0.04,-0.01
12:25:46.381,0.04,-0.06,-0.08,0.01,0,-0.01,0.05,0.01
12:25:46.395,0.16,-0.03,-0.08,0,-0.02,0.11,0.12,0.04
12:25:46.405,0.16,-0.03,-0.08,0,-0.02,0.11,0.12,0.04
12:25:46.415,0.16,0.24,-0.04,-0.01,-0.03,0.02,-0.02,0.02
12:25:46.424,0.05,-0.04,-0.05,0,-0.01,0.31,0.15,0
12:25:46.433,-0.09,-0.13,0.01,0,0,-0.25,0.01,0
12:25:46.448,0,-0.07,-0.14,0,0.01,0.03,-0.12,-0.03
12:25:46.491,-0.04,-0.01,0,-0.01,0,-0.04,0.01,-0.05
12:25:46.502,-0.04,-0.01,0,-0.01,0,-0.04,0.01,-0.05
12:25:46.517,0.07,-0.03,0.04,-0.01,0.01,0.09,0.07,-0.01
12:25:46.528,0.07,-0.03,0.04,-0.01,0.01,0.09,0.07,-0.01
12:25:46.539,-0.01,-0.32,0,0,-0.01,-0.03,-0.04,0.01
12:25:46.548,-0.02,-0.13,0.07,-0.02,-0.02,0.17,0,0.05
12:25:46.558,0.07,0.06,0.24,-0.02,-0.04,-0.19,-0.02,-0.03
12:25:46.606,0.04,-0.05,0.01,0,0,0,0,0
12:25:46.616,-0.02,0.29,0.09,-0.01,-0.04,0.19,-0.04,0
12:25:46.628,0.18,0.09,0.05,0,0,0.31,0.12,0.02
12:25:46.641,0.18,0.09,0.05,0,0,0.31,0.12,0.02
12:25:46.654,-0.39,-0.03,0.02,0,0,-0.02,-0.03,-0.05
12:25:46.665,-0.16,-0.06,-0.04,-0.02,0,-0.06,-0.21,-0.06
12:25:46.708,-0.01,0,0.04,0.01,0.01,-0.02,-0.06,0.03
12:25:46.718,-0.24,-0.29,-0.03,-0.02,-0.04,-0.11,0.01,-0.04
12:25:46.731,-0.02,0.05,-0.06,-0.01,-0.01,-0.01,-0.05,-0.02
12:25:46.742,-0.02,0.05,-0.06,-0.01,-0.01,-0.01,-0.05,-0.02
12:25:46.753,0.1,-0.25,0.06,0,-0.01,0.03,0.01,-0.01
12:25:46.762,0.1,-0.25,0.06,0,-0.01,0.03,0.01,-0.01
12:25:46.772,-0.43,-0.09,0.14,0,0.01,-0.3,-0.09,-0.07
12:25:46.816,0.17,-0.07,-0.09,0,0,-0.02,0.17,0
12:25:46.827,0.17,-0.07,-0.09,0,0,-0.02,0.17,0
12:25:46.841,0.14,0.17,-0.04,-0.02,0,0.06,-0.01,0.03
12:25:46.852,0.12,0.03,-0.2,-0.02,-0.01,0,0.03,-0.01
12:25:46.864,0.12,0.03,-0.2,-0.02,-0.01,0,0.03,-0.01
12:25:46.875,0.39,0,-0.05,-0.02,-0.02,0.11,-0.22,0.03
12:25:46.883,0.39,0,-0.05,-0.02,-0.02,0.11,-0.22,0.03
12:25:46.938,0.08,0.02,0.02,-0.03,-0.04,-0.08,0,0
12:25:46.949,0,0,0.03,-0.01,0.01,0,0.01,0.05
12:25:46.961,-0.12,0,0,0.02,0,-0.05,0.07,0
12:25:46.972,0.19,0.04,-0.01,0,0,0.03,0,0
12:25:46.982,-0.06,-0.03,0,-0.01,-0.01,0,-0.59,0
12:25:46.993,0.06,-0.02,0.01,0,-0.04,0,0.12,0
12:25:47.039,0.06,-0.05,0,-0.01,-0.02,-0.29,-0.03,-0.04
12:25:47.049,-0.04,0.02,0.05,-0.02,-0.04,-0.08,-0.17,-0.03
12:25:47.058,-0.04,0.02,0.05,-0.02,-0.04,-0.08,-0.17,-0.03
12:25:47.067,-0.04,0.02,0.05,-0.02,-0.04,-0.08,-0.17,-0.03
12:25:47.077,-0.12,-0.04,-0.01,0,0.01,0.01,0.07,0.01
12:25:47.089,-0.25,0.02,-0.14,-0.02,-0.01,0.44,0.02,-0.04
12:25:47.101,0,0.04,0.03,0,0,0.01,0.12,0.02
12:25:47.111,-0.11,0.17,0.04,-0.02,-0.05,0.32,-0.05,-0.02
12:25:47.155,-0.03,0.02,0,0,-0.01,-0.15,-0.4,-0.06
12:25:47.165,-0.03,0.02,0,0,-0.01,-0.15,-0.4,-0.06
12:25:47.179,-0.03,-0.03,-0.03,-0.01,0.01,0.08,0.22,-0.01
12:25:47.190,-0.04,-0.01,0.08,0,0.02,0.41,0.09,0
12:25:47.204,-0.04,-0.08,-0.02,0,-0.01,-0.09,-0.05,0.03
12:25:47.216,0.39,-0.05,-0.07,-0.02,-0.02,0.05,0.06,0.02
12:25:47.258,0.29,0.03,0,-0.03,-0.02,0.2,0.04,0
12:25:47.269,0.29,0.03,0,-0.03,-0.02,0.2,0.04,0
12:25:47.279,0.04,-0.05,-0.17,0,0.02,0.19,-0.01,-0.01
12:25:47.291,-0.15,-0.16,0.03,-0.02,-0.03,0.34,0.08,-0.01
12:25:47.303,-0.3,-0.07,0.18,0,0,0.13,0.1,-0.03
12:25:47.316,0.06,-0.25,-0.03,-0.01,0,-0.06,0.13,0.04
12:25:47.329,0.05,0.02,-0.01,0,0.01,-0.08,-0.08,-0.01
12:25:47.378,0.04,-0.01,-0.27,0,-0.02,-0.07,0.2,0.01
12:25:47.390,0.04,-0.01,-0.27,0,-0.02,-0.07,0.2,0.01
12:25:47.401,-0.03,-0.05,0,0,0,0.02,-0.05,0
12:25:47.415,0.14,0.06,-0.02,0.01,0.01,0.06,0.08,0.03
12:25:47.426,0.14,0.06,-0.02,0.01,0.01,0.06,0.08,0.03
12:25:47.437,0,0,0.01,0,0.02,0.06,-0.06,0.04
12:25:47.491,-0.09,0,0,0,0,-0.05,-0.06,-0.05
12:25:47.504,-0.09,0,0,0,0,-0.05,-0.06,-0.05
12:25:47.517,-0.01,-0.02,0.27,0,-0.02,0.13,0.04,0.02
12:25:47.526,0.15,0.13,0.04,-0.01,0,-0.03,0,0
12:25:47.540,-0.12,0.01,0.09,0,-0.02,-0.04,0.11,-0.02
12:25:47.583,0.04,0.02,-0.04,0,0,0.1,0.15,0.01
12:25:47.594,0.04,0.03,-0.18,-0.02,-0.07,-0.02,-0.23,-0.04
12:25:47.604,0.04,0.03,-0.18,-0.02,-0.07,-0.02,-0.23,-0.04
12:25:47.614,-0.02,0.01,-0.01,-0.01,0.05,0.12,0.06,0
12:25:47.623,-0.02,0.01,-0.01,-0.01,0.05,0.12,0.06,0
12:25:47.632,0.05,0,0.01,0,0,0.09,0.05,0.05
12:25:47.644,0.05,0,0.01,0,0,0.09,0.05,0.05
12:25:47.655,-0.22,0.1,-0.04,-0.01,-0.03,0.24,-0.14,-0.12
12:25:47.697,-0.01,-0.03,0,0,-0.03,-0.27,0.13,0
12:25:47.711,0,-0.05,-0.04,0,0,-0.28,-0.01,-0.02
12:25:47.721,0.04,-0.04,0.11,-0.01,0,0.17,0.01,-0.02
12:25:47.732,-0.02,-0.01,0,-0.01,0,0.05,-0.02,-0.02
12:25:47.741,-0.02,-0.01,0,-0.01,0,0.05,-0.02,-0.02
12:25:47.749,-0.02,-0.01,0,-0.01,0,0.05,-0.02,-0.02
12:25:47.759,0.09,-0.04,-0.04,0,-0.01,-0.12,0.11,0.01
12:25:47.801,0.03,-0.13,0,0,-0.01,-0.02,0.18,0.01
12:25:47.813,0,-0.03,-0.07,0,0.01,0.12,-0.04,-0.01
12:25:47.824,0,-0.03,-0.07,0,0.01,0.12,-0.04,-0.01
12:25:47.836,-0.22,0.17,-0.23,0,0.01,0.06,-0.15,0.01
12:25:47.846,-0.22,0.17,-0.23,0,0.01,0.06,-0.15,0.01
12:25:47.856,0.25,0,0.06,0.01,0,-0.15,-0.09,0.02
12:25:47.867,0.25,0,0.06,0.01,0,-0.15,-0.09,0.02
12:25:47.910,-0.14,-0.06,-0.14,0,0,-0.22,0,-0.03
12:25:47.920,-0.14,-0.06,-0.14,0,0,-0.22,0,-0.03
12:25:47.931,-0.05,0,0.03,-0.02,-0.01,0.03,-0.02,-0.02
12:25:47.942,0,-0.01,0.07,-0.02,0,-0.15,0.04,0
12:25:47.952,0.02,0,-0.07,0.01,-0.02,-0.12,-0.15,0.03
12:25:47.962,-0.13,0,-0.01,-0.02,0,0.07,0.07,-0.02
12:25:47.971,0.06,0.06,0.08,0,-0.01,0.19,-0.25,0
12:25:47.981,0.06,0.06,0.08,0,-0.01,0.19,-0.25,0
12:25:48.051,0.07,0.01,-0.08,-0.01,-0.01,-0.15,-0.07,-0.03
12:25:48.063,0.01,-0.01,0,0,-0.02,-0.06,-0.05,0.01
12:25:48.076,-0.02,-0.05,0.06,-0.02,-0.03,-0.18,-0.03,-0.01
12:25:48.089,0,-0.02,0.01,0.01,0.04,0.13,0.07,-0.03
12:25:48.142,0.13,0.01,0.06,0,0.01,0,-0.07,-0.01
12:25:48.153,0.02,0,-0.08,0,0,0.07,0.2,0.02
12:25:48.162,0.02,0,-0.08,0,0,0.07,0.2,0.02
12:25:48.174,-0.07,0.03,-0.01,-0.02,0,0.07,-0.03,-0.01
12:25:48.184,-0.07,0.03,-0.01,-0.02,0,0.07,-0.03,-0.01
12:25:48.194,-0.23,0,-0.05,0,0.02,-0.02,0.02,-0.01
12:25:48.240,0.04,-0.06,-0.11,0.02,0,-0.1,0.01,0
12:25:48.251,0.04,-0.06,-0.11,0.02,0,-0.1,0.01,0
12:25:48.260,0.11,-0.02,0.02,-0.01,-0.05,0.4,-0.11,0.02
12:25:48.270,0.02,-0.02,0.03,0.01,0,-0.24,0.1,0
12:25:48.280,0.02,-0.02,0.03,0.01,0,-0.24,0.1,0
12:25:48.290,0.02,-0.02,0.03,0.01,0,-0.24,0.1,0
12:25:48.304,-0.02,-0.08,0,0,-0.01,-0.18,-0.04,-0.05
12:25:48.346,0.06,0.04,0.05,0,-0.03,0.18,-0.07,0
12:25:48.360,0,-0.05,-0.05,0,0,0.06,0.03,-0.02
12:25:48.373,0,-0.05,-0.05,0,0,0.06,0.03,-0.02
12:25:48.385,0.06,0,-0.02,-0.01,0,-0.03,0.02,0
12:25:48.395,-0.06,-0.01,0.06,0.04,0.02,-0.04,0.04,0
12:25:48.407,-0.06,-0.01,0.06,0.04,0.02,-0.04,0.04,0
12:25:48.452,0.14,0.03,0,0,0,0.13,0.18,0.01
12:25:48.466,0.17,0.05,0.02,-0.04,-0.02,0.01,0.08,0.02
12:25:48.477,0,0.01,-0.03,-0.01,-0.01,-0.2,-0.05,-0.02
12:25:48.488,0,0.01,-0.03,-0.01,-0.01,-0.2,-0.05,-0.02
12:25:48.498,-0.06,0.03,0.05,0,-0.01,0.05,-0.14,-0.03
12:25:48.510,-0.23,0,0,0,0.02,0.1,0.08,-0.01
12:25:48.521,-0.04,-0.04,-0.05,0,0.01,-0.06,-0.12,0
12:25:48.568,0.07,-0.02,-0.01,0.01,-0.01,-0.09,-0.07,0
12:25:48.581,0.09,0.04,0.03,0,0,-0.05,-0.02,0.02
12:25:48.591,0.02,0.03,0.03,-0.02,-0.01,-0.23,-0.13,-0.03
12:25:48.602,0.17,0.03,-0.07,0.03,0.04,0.08,0.12,0.07
12:25:48.613,0.17,0.03,-0.07,0.03,0.04,0.08,0.12,0.07
12:25:48.626,-0.1,-0.01,-0.02,-0.01,-0.01,-0.03,0.05,-0.01
12:25:48.636,-0.11,0.01,0.06,-0.02,-0.03,0.08,0.04,-0.03
12:25:48.685,-0.24,-0.03,0.06,-0.03,-0.04,-0.35,-0.09,-0.07
12:25:48.697,0.02,0,0,0,0,-0.09,-0.12,0
12:25:48.708,0.02,0,0,0,0,-0.09,-0.12,0
12:25:48.719,0.31,0.05,-0.01,0.01,0.02,0.08,0.06,0.09
12:25:48.729,0.31,0.05,-0.01,0.01,0.02,0.08,0.06,0.09
12:25:48.741,-0.02,-0.09,0.07,-0.01,-0.02,-0.03,-0.17,-0.04
12:25:48.789,-0.38,0,0.04,-0.01,-0.04,0,-0.16,-0.08
12:25:48.804,0.36,-0.05,-0.04,-0.01,0.01,0.48,0.29,0.06
12:25:48.819,0.06,0.09,-0.04,-0.01,0,-0.11,0.07,-0.03
12:25:48.830,0.06,0.09,-0.04,-0.01,0,-0.11,0.07,-0.03
12:25:48.841,0.04,0,-0.22,-0.03,-0.06,-0.1,0.07,0
12:25:48.850,0.15,-0.02,-0.02,0,0,0,0.04,0.04
12:25:48.898,-0.05,-0.03,-0.01,-0.01,-0.01,-0.1,-0.45,-0.03
12:25:48.909,-0.05,-0.03,-0.01,-0.01,-0.01,-0.1,-0.45,-0.03
12:25:48.921,0.36,0.05,0.11,0,-0.02,-0.1,0,0.01
12:25:48.932,-0.03,-0.01,0.01,0,0,0.1,0.07,-0.01
12:25:48.941,0.08,0,-0.02,-0.01,0.01,-0.13,0.08,0.02
12:25:48.950,0.08,0,-0.02,-0.01,0.01,-0.13,0.08,0.02
12:25:48.959,-0.2,-0.03,-0.02,0.01,0.02,0.33,-0.14,-0.06
12:25:49.005,-0.2,0.01,0,0,-0.01,-0.04,0.06,0
12:25:49.018,0,-0.01,-0.01,0,-0.01,0.07,-0.12,0.02
12:25:49.030,0,-0.01,-0.01,0,-0.01,0.07,-0.12,0.02
12:25:49.040,0.09,0.05,-0.08,0,0.02,0.16,0.17,0.03
12:25:49.053,0.02,0,-0.02,-0.01,0,0.36,-0.13,-0.02
12:25:49.063,-0.02,-0.1,0.02,0,0,-0.16,0.23,-0.03
12:25:49.071,0,0.21,0.04,0.01,0.03,0.04,-0.02,0.04
12:25:49.112,-0.03,0,-0.09,-0.02,-0.01,0.25,-0.04,-0.01
12:25:49.122,-0.28,-0.04,-0.06,0,0.01,-0.01,0.18,-0.02
12:25:49.131,-0.28,-0.04,-0.06,0,0.01,-0.01,0.18,-0.02
12:25:49.140,-0.1,-0.04,-0.07,0,-0.02,0.04,0.11,-0.04
12:25:49.149,-0.1,-0.04,-0.07,0,-0.02,0.04,0.11,-0.04
12:25:49.160,-0.01,0.04,0.01,0.01,0.03,0.09,0.01,0.05
12:25:49.171,-0.01,0.04,0.01,0.01,0.03,0.09,0.01,0.05
12:25:49.182,0.09,0.05,-0.02,-0.01,-0.01,-0.13,0.04,0.05
12:25:49.224,-0.77,-0.21,-0.09,0,0,-0.15,0.08,-0.09
12:25:49.235,-0.77,-0.21,-0.09,0,0,-0.15,0.08,-0.09
12:25:49.244,0.19,0,0.18,0.01,0.07,0.23,0.16,0.02
12:25:49.253,0,-0.02,-0.02,0,0,-0.17,-0.25,0
12:25:49.264,0,-0.02,-0.02,0,0,-0.17,-0.25,0
12:25:49.275,0.12,0.1,0,0,0,0.07,0.09,0
12:25:49.289,0.06,0.06,0.04,-0.01,-0.01,0.04,-0.06,0
12:25:49.335,0,-0.03,-0.1,-0.02,-0.06,0.24,0.06,0
12:25:49.347,0,-0.03,-0.1,-0.02,-0.06,0.24,0.06,0
12:25:49.358,0.1,0.1,0.01,0,-0.03,-0.31,0.08,-0.01
12:25:49.367,0.1,0.1,0.01,0,-0.03,-0.31,0.08,-0.01
12:25:49.377,0.06,-0.01,0.06,0,0.02,0.03,0.22,0.02
12:25:49.389,0.06,-0.01,0.06,0,0.02,0.03,0.22,0.02
12:25:49.399,-0.01,-0.04,-0.11,0.01,0.02,0.32,-0.01,0.02
12:25:49.441,-0.4,-0.03,-0.05,0,0.01,0.15,-0.09,0
12:25:49.452,-0.4,-0.03,-0.05,0,0.01,0.15,-0.09,0
12:25:49.464,0.17,0.01,0,0,0.01,-0.09,-0.14,-0.03
12:25:49.475,0.17,0.01,0,0,0.01,-0.09,-0.14,-0.03
12:25:49.485,-0.2,-0.01,-0.06,0,0,0.07,-0.04,-0.04
12:25:49.495,0.05,0.21,0.28,0.02,0,0.21,0.07,0
12:25:49.507,0.14,0.06,0,0,-0.01,-0.04,-0.05,0.01
12:25:49.550,0.05,0.01,-0.02,0.01,0.02,0.06,0.17,0.04
12:25:49.562,0.1,0.01,0,0,-0.03,-0.68,0.02,0.02
12:25:49.575,0.13,-0.08,-0.1,-0.01,-0.01,-0.21,-0.26,-0.02
12:25:49.585,0.32,0.04,0.07,-0.01,-0.01,0.12,-0.05,0.01
12:25:49.598,0,-0.03,-0.07,-0.02,-0.04,-0.06,0.18,-0.03
12:25:49.610,0,-0.03,-0.07,-0.02,-0.04,-0.06,0.18,-0.03
12:25:49.621,-0.18,-0.15,-0.03,0.01,0.03,0.05,0.08,0
12:25:49.669,-0.01,-0.21,-0.04,-0.01,0,-0.02,-0.02,0.02
12:25:49.679,-0.11,0.09,0,0,-0.02,-0.1,-0.28,-0.03
12:25:49.691,-0.11,0.09,0,0,-0.02,-0.1,-0.28,-0.03
12:25:49.702,0.09,0,-0.03,-0.01,-0.01,0.3,0.08,0.01
12:25:49.713,0.09,0,-0.03,-0.01,-0.01,0.3,0.08,0.01
12:25:49.724,0.18,0.01,0.07,-0.02,-0.03,-0.19,0.14,-0.02
12:25:49.766,-0.09,-0.02,-0.06,-0.01,0,0.18,-0.04,-0.04
12:25:49.777,0.07,0.01,0,0,0,-0.09,0.26,0.02
12:25:49.788,0.07,0.01,0,0,0,-0.09,0.26,0.02
12:25:49.798,0.12,-0.01,0.16,-0.01,0.03,0.45,0.2,0.05
12:25:49.807,-0.01,0.01,0.01,0,0.04,0,0.26,0
12:25:49.815,-0.25,0.04,-0.04,0,-0.01,0.01,-0.28,-0.02
12:25:49.826,-0.25,0.04,-0.04,0,-0.01,0.01,-0.28,-0.02
12:25:49.836,-0.02,0.01,0,0,-0.01,-0.04,-0.19,0.02
12:25:49.878,0.09,0.03,0.01,0,0,0.11,0,0
12:25:49.892,0.09,0.03,0.01,0,0,0.11,0,0
12:25:49.901,-0.05,0,-0.07,0,0,0.06,0.01,-0.01
12:25:49.911,0.04,0.04,-0.22,0,-0.03,-0.1,-0.2,0
12:25:49.920,-0.04,0.06,-0.03,0.01,0,-0.07,0.26,0.01
12:25:49.929,-0.04,0.06,-0.03,0.01,0,-0.07,0.26,0.01
12:25:49.942,-0.02,0.06,0,0,-0.03,-0.38,-0.01,0
12:25:49.984,-0.04,0.02,0.02,0,0,0.09,-0.06,0
12:25:49.994,-0.08,-0.04,-0.03,-0.04,-0.01,0.21,0.21,-0.01
12:25:50.006,-0.07,-0.06,-0.02,-0.02,0,0.04,0.11,-0.03
12:25:50.015,-0.07,-0.06,-0.02,-0.02,0,0.04,0.11,-0.03
12:25:50.024,0.08,0.01,-0.15,-0.02,-0.03,-0.09,-0.02,0
12:25:50.035,0.05,0,0.1,0,-0.01,0.06,0.1,0.01
12:25:50.047,-0.08,0,0.01,0.03,0.04,0.13,0.08,0.04
12:25:50.057,0.01,0.01,-0.06,0,0,0.02,-0.13,0.01
12:25:50.102,-0.1,-0.01,0.08,-0.01,0,-0.07,0.16,0.06
12:25:50.122,0.1,0.02,0.03,-0.01,0.01,0.04,-0.04,0.04
12:25:50.158,0.15,0.01,-0.05,-0.02,-0.02,0.14,0,-0.02
12:25:50.242,-0.13,-0.09,0.02,0,0,0.15,0.01,-0.04
12:25:50.267,0.08,-0.02,0.01,0.02,0.04,-0.29,0.06,0
12:25:50.369,0.12,-0.01,-0.03,0.01,0,-0.18,-0.01,0.01
12:25:50.475,-0.16,0.01,0.05,0,0.01,-0.18,-0.01,0
12:25:50.494,-0.04,-0.01,0.01,-0.01,-0.01,0.29,-0.17,-0.03
12:25:50.574,0,-0.05,-0.03,-0.04,-0.05,-0.02,-0.25,-0.02
12:25:50.591,0.13,-0.08,-0.04,-0.03,-0.04,-0.34,-0.2,-0.06
12:25:50.604,0.26,-0.03,0.15,0,-0.04,0.07,-0.31,-0.01
12:25:50.674,-0.01,0.01,-0.01,0,-0.01,-0.21,0.03,0.04
12:25:50.689,0.04,0.1,0.29,0,0,-0.28,-0.44,-0.08
12:25:50.702,-0.13,-0.08,-0.05,0.01,0,-0.36,0.21,0.04
12:25:50.712,-0.09,-0.03,0,-0.01,-0.02,-0.16,0,-0.12
12:25:50.750,-0.1,-0.03,-0.06,-0.02,-0.04,-0.13,-0.2,-0.02
12:25:50.762,0.04,0,-0.02,0.01,0.01,0.05,0.09,0.05
12:25:50.775,0,-0.04,-0.06,-0.01,0,-0.36,-0.08,0
12:25:50.787,-0.2,0.01,0.24,0,-0.02,0.22,0.15,0
12:25:50.796,0.03,0.03,0,0.01,0,0.48,0.2,0.06
12:25:50.806,-0.01,0.09,0.06,0.01,0.01,0,0.13,0.02
12:25:50.816,-0.01,0.09,0.06,0.01,0.01,0,0.13,0.02
12:25:50.859,0.12,-0.08,-0.09,-0.01,0,0.14,0.03,0
12:25:50.871,0.12,-0.08,-0.09,-0.01,0,0.14,0.03,0
12:25:50.883,0.03,0.05,-0.07,0.01,0.05,0.3,0.39,0.05
12:25:50.896,-0.04,-0.04,0.02,-0.01,0.01,-0.18,-0.21,-0.07
12:25:50.907,-0.09,-0.08,-0.09,-0.01,0,-0.2,0.06,-0.02
12:25:50.916,-0.09,-0.08,-0.09,-0.01,0,-0.2,0.06,-0.02
12:25:50.925,0.26,0.16,-0.04,-0.01,-0.02,0.19,-0.22,-0.03
12:25:50.934,0,-0.05,-0.01,0,-0.01,-0.08,-0.04,0.01
12:25:50.981,-0.05,-0.05,0,0,0.02,0.1,0.07,0
12:25:50.993,-0.05,-0.05,0,0,0.02,0.1,0.07,0
12:25:51.009,0.03,-0.05,-0.03,0,-0.03,0.05,-0.02,-0.04
12:25:51.020,0.05,0.02,0.03,0,0,0.35,0.17,0.01
12:25:51.032,-0.08,-0.02,0.08,0.01,0,0.03,0.03,0
12:25:51.042,0,-0.01,0,-0.02,-0.01,0.12,-0.04,-0.02
12:25:51.088,0.12,0.02,-0.02,0,0,0.15,-0.03,0
12:25:51.098,0.13,-0.1,-0.1,0,0,0.23,0.03,0.01
12:25:51.110,-0.07,-0.03,0.01,-0.01,-0.02,-0.12,-0.37,-0.01
12:25:51.121,-0.05,-0.02,-0.04,-0.01,-0.01,0.06,0.17,-0.03
12:25:51.135,-0.05,-0.02,-0.04,-0.01,-0.01,0.06,0.17,-0.03
12:25:51.145,-0.01,0.02,0,0,0,-0.05,0.16,0.03
12:25:51.186,0.14,0.19,0.3,0,-0.02,-0.18,-0.12,-0.03
12:25:51.198,0.14,0.19,0.3,0,-0.02,-0.18,-0.12,-0.03
12:25:51.208,-0.07,-0.08,-0.08,0,0,0.07,0,-0.05
12:25:51.219,-0.01,-0.02,0.02,0,-0.01,-0.02,-0.02,0
12:25:51.232,-0.19,-0.01,-0.08,0,0.01,0,-0.01,-0.05
12:25:51.247,0.13,0,0,-0.01,-0.01,-0.04,0.17,0.02
12:25:51.258,-0.5,-0.17,-0.16,-0.02,-0.03,0.33,-0.26,-0.1
12:25:51.304,0.2,0.02,-0.01,-0.02,-0.07,-0.11,-0.1,0.01
12:25:51.316,0.2,0.02,-0.01,-0.02,-0.07,-0.11,-0.1,0.01
12:25:51.326,0.1,0.02,0,0,-0.02,0,0.01,0
12:25:51.336,0.01,-0.01,-0.02,0,0,0,0.03,0
12:25:51.348,0.19,0.04,0,0,-0.01,0.05,0.04,0.02
12:25:51.359,0.23,0.19,0.04,-0.01,-0.02,-0.04,0.24,0.01
12:25:51.369,0.07,0.04,0.01,0.01,0.01,-0.15,0.07,0.02
12:25:51.411,0.02,-0.01,0.08,0.05,0.08,-0.05,0.14,0.01
12:25:51.422,0.06,0.02,0,0,0,0.43,0.11,-0.07
12:25:51.431,0.06,0.02,0,0,0,0.43,0.11,-0.07
12:25:51.440,0.06,0.02,0,0,0,0.43,0.11,-0.07
12:25:51.453,0.02,0.08,0.08,-0.01,-0.02,-0.09,-0.37,-0.06
12:25:51.463,-0.17,-0.03,-0.11,0,0,-0.23,0.19,0.04
12:25:51.473,-0.25,-0.04,-0.03,0,0,-0.03,0.14,-0.01
12:25:51.514,0.16,0.06,0,0,0,0.35,0.24,0.08
12:25:51.524,0,-0.05,0,0,0,-0.05,0.09,0
12:25:51.535,0,-0.05,0,0,0,-0.05,0.09,0
12:25:51.548,0.07,0.04,0.06,0,0,0,0.13,0
12:25:51.560,0.07,0.04,0.06,0,0,0,0.13,0
12:25:51.572,0.08,-0.01,-0.15,0.01,0.02,-0.12,-0.1,0.04
12:25:51.582,0.13,-0.02,0,0.01,0,-0.16,0.12,0.01
12:25:51.638,-0.05,-0.06,-0.11,0,-0.01,-0.17,0.15,0.02
12:25:51.650,0.02,-0.02,-0.07,-0.02,-0.02,-0.02,-0.08,-0.04
12:25:51.662,0.04,0.06,0.03,-0.01,0,0.23,0.05,0.03
12:25:51.672,0.04,0.06,0.03,-0.01,0,0.23,0.05,0.03
12:25:51.683,0.05,-0.01,0,0,0.01,0.16,-0.05,0.05
12:25:51.694,-0.11,0,0.02,0,-0.01,-0.29,0.06,-0.01
12:25:51.746,0.22,-0.02,0.02,0,0,-0.32,-0.21,0.04
12:25:51.756,0.22,-0.02,0.02,0,0,-0.32,-0.21,0.04
12:25:51.768,0,0,-0.1,-0.02,-0.01,-0.02,0,0
12:25:51.778,-0.06,0,0.01,-0.01,-0.02,-0.27,0.17,0.04
12:25:51.790,-0.06,0,0.01,-0.01,-0.02,-0.27,0.17,0.04
12:25:51.802,-0.06,0.02,0,0.01,0.01,0.22,0.27,0.03
12:25:51.846,0.03,0,-0.16,-0.01,-0.02,-0.1,-0.01,-0.03
12:25:51.855,0.03,0,-0.16,-0.01,-0.02,-0.1,-0.01,-0.03
12:25:51.867,0.01,-0.01,0.05,0,0,-0.11,0.02,-0.03
12:25:51.883,0.04,0,0.04,0,-0.02,-0.28,0.02,0
12:25:51.897,0.04,0,0.04,0,-0.02,-0.28,0.02,0
12:25:51.908,-0.01,0,-0.09,-0.01,0.01,0.24,0,-0.02
12:25:51.955,-0.04,0,0.07,0,-0.01,-0.03,-0.06,-0.01
12:25:51.965,0.01,0.03,0.04,0.01,0,0.05,-0.01,-0.04
12:25:51.975,0.01,0.03,0.04,0.01,0,0.05,-0.01,-0.04
12:25:51.984,-0.09,-0.01,0,0,0,-0.01,-0.08,-0.01
12:25:51.996,-0.09,-0.01,0,0,0,-0.01,-0.08,-0.01
12:25:52.011,0.22,-0.01,-0.02,0,-0.01,-0.2,-0.27,0
12:25:52.022,-0.04,0.03,0.07,0.02,0.02,0.11,0.3,-0.03
12:25:52.062,-0.06,0,0.03,-0.01,-0.03,0.08,-0.1,0.03
12:25:52.072,-0.07,0.01,0,-0.03,0,-0.05,0.21,0.04
12:25:52.082,-0.01,0.14,0.11,0,0.02,0,-0.05,-0.02
12:25:52.092,-0.01,0.14,0.11,0,0.02,0,-0.05,-0.02
12:25:52.102,-0.07,-0.14,0.02,0,-0.01,0.01,0,-0.01
12:25:52.115,-0.07,-0.14,0.02,0,-0.01,0.01,0,-0.01
12:25:52.127,-0.08,-0.02,-0.08,-0.01,-0.04,0.31,0.02,-0.02
12:25:52.184,-0.02,-0.04,-0.03,-0.01,0,-0.08,0.12,-0.04
12:25:52.195,-0.02,-0.04,-0.03,-0.01,0,-0.08,0.12,-0.04
12:25:52.209,0,0,-0.02,-0.01,0,-0.16,-0.05,-0.02
12:25:52.226,-0.03,0,0.02,0,0,0.03,-0.06,-0.02
12:25:52.237,-0.03,0,0.02,0,0,0.03,-0.06,-0.02
12:25:52.284,0.04,0,0,0,-0.01,-0.15,-0.14,-0.04
12:25:52.298,0.04,0,0,0,-0.01,-0.15,-0.14,-0.04
12:25:52.309,-0.06,-0.01,0,0,-0.01,-0.08,0.03,0
12:25:52.321,-0.1,0,-0.01,-0.01,0,0.02,-0.02,0.02
12:25:52.333,-0.1,0,-0.01,-0.01,0,0.02,-0.02,0.02
12:25:52.345,0,0,-0.02,0,0,0,-0.01,-0.01
12:25:52.391,0.02,0,0.04,0,0,0,0.04,-0.02
12:25:52.402,-0.07,0,-0.05,0,0.01,0.06,-0.02,-0.03
12:25:52.414,-0.07,0,-0.05,0,0.01,0.06,-0.02,-0.03
12:25:52.425,-0.27,-0.02,0.03,0.01,0.04,0.3,0.07,0
12:25:52.434,-0.27,-0.02,0.03,0.01,0.04,0.3,0.07,0
12:25:52.443,-0.03,0,0,-0.02,-0.02,-0.1,0.05,0.04
12:25:52.452,-0.03,0,0,-0.02,-0.02,-0.1,0.05,0.04
12:25:52.461,-0.2,0,-0.01,-0.01,0,-0.02,0.08,-0.04
12:25:52.503,0.02,0,-0.02,-0.01,-0.02,-0.01,-0.02,0.1
12:25:52.513,0.02,0,-0.02,-0.01,-0.02,-0.01,-0.02,0.1
12:25:52.522,-0.11,-0.03,-0.14,0,-0.02,0.07,0.21,0
12:25:52.534,-0.11,-0.03,-0.14,0,-0.02,0.07,0.21,0
12:25:52.544,0.16,0.02,0.07,0.02,0.02,-0.01,-0.04,-0.01
12:25:52.554,0.16,0.02,0.07,0.02,0.02,-0.01,-0.04,-0.01
12:25:52.564,-0.11,0,0.02,0,0,-0.3,-0.02,-0.01
12:25:52.573,0.1,0,-0.01,0,0,0.01,-0.14,-0.05
12:25:52.618,0.04,0.02,0.04,0.01,0,0.02,0.04,0
12:25:52.629,0.1,0,0.06,0,0.01,0,-0.02,0
12:25:52.639,0.1,0,0.06,0,0.01,0,-0.02,0
12:25:52.649,0.15,0,0.26,0.01,0.02,0.08,0.11,-0.02
12:25:52.660,0.15,0,0.26,0.01,0.02,0.08,0.11,-0.02
12:25:52.671,0.11,0.03,-0.01,-0.02,0.01,0,0.14,0.02
12:25:52.680,-0.07,-0.02,-0.05,0,-0.04,-0.03,0.03,-0.02
12:25:52.727,0.03,0,0,0,0,0.02,0.04,0.02
12:25:52.739,0.15,-0.01,0,-0.01,-0.02,-0.37,0.01,-0.04
12:25:52.750,0.27,0,-0.13,-0.02,-0.08,-0.25,-0.86,-0.1
12:25:52.761,0.01,0,-0.01,0,0,0,0.18,0.04
12:25:52.773,0.01,0,-0.01,0,0,0,0.18,0.04
12:25:52.784,0.03,-0.01,-0.03,0,-0.01,0.09,-0.06,0
12:25:52.835,-0.11,-0.01,0,-0.02,-0.04,0.02,0.18,-0.06
12:25:52.847,-0.1,0,0.04,0.01,0.03,0.08,0.2,0
12:25:52.862,-0.05,-0.02,0.02,-0.02,-0.04,-0.2,-0.13,-0.03
12:25:52.877,-0.09,-0.02,0.02,0,0.03,0.03,-0.04,-0.02
12:25:52.886,-0.29,0,-0.01,0,-0.03,0.13,0.03,-0.01
12:25:52.895,0.07,0.01,0,-0.03,-0.04,-0.35,-0.47,-0.09
12:25:52.944,0.04,-0.03,-0.12,0,0,0,0.08,0
12:25:52.957,0.04,-0.03,-0.12,0,0,0,0.08,0
12:25:52.967,-0.07,-0.01,-0.04,0,-0.02,0.03,-0.59,-0.04
12:25:52.979,-0.07,-0.01,-0.04,0,-0.02,0.03,-0.59,-0.04
12:25:52.992,0.03,0,0,0,0.01,0.19,0.4,0.01
12:25:53.005,0.2,-0.01,0.1,-0.02,0,-0.05,0.17,0.04
12:25:53.049,0.02,-0.01,0.02,0,0.02,0.07,0.39,0.02
12:25:53.060,-0.03,0,0,-0.02,-0.01,0.18,-0.25,0.02
12:25:53.072,-0.13,0,0.06,0,0.03,0.1,0.15,0.01
12:25:53.084,-0.11,0.01,0,0.02,0,0.21,0.07,0
12:25:53.093,-0.11,0.01,0,0.02,0,0.21,0.07,0
12:25:53.104,-0.11,0.01,0,0.02,0,0.21,0.07,0
12:25:53.114,-0.02,0,-0.03,-0.05,-0.07,0.03,-0.68,-0.01
12:25:53.157,0.01,0,0.03,0.01,0.02,-0.03,0.27,0.01
12:25:53.167,0.06,0.01,0,-0.01,0.02,0.03,0.1,0.04
12:25:53.179,0.06,0.01,0,-0.01,0.02,0.03,0.1,0.04
12:25:53.189,-0.05,0.06,0.02,0,0.03,0.15,0.46,0.02
12:25:53.201,-0.05,0.06,0.02,0,0.03,0.15,0.46,0.02
12:25:53.210,-0.04,-0.02,0.12,-0.02,-0.04,0.06,-0.56,-0.04
12:25:53.219,-0.04,-0.02,0.12,-0.02,-0.04,0.06,-0.56,-0.04
12:25:53.228,0,-0.02,-0.02,0,0.03,-0.05,0.14,0.07
12:25:53.270,0.01,0,-0.03,-0.01,-0.01,0.06,0.09,-0.04
12:25:53.282,0.01,0,-0.03,-0.01,-0.01,0.06,0.09,-0.04
12:25:53.293,0.17,-0.01,-0.02,-0.01,0,-0.1,-0.09,-0.05
12:25:53.304,0.03,0.01,0.03,0,0.01,-0.01,0.2,0.04
12:25:53.317,0.03,0.01,0.03,0,0.01,-0.01,0.2,0.04
12:25:53.335,0.02,0,-0.01,0,-0.03,-0.13,-0.09,-0.02
12:25:53.389,-0.31,-0.03,-0.09,0.01,-0.01,0.06,0.18,-0.01
12:25:53.400,-0.31,-0.03,-0.09,0.01,-0.01,0.06,0.18,-0.01
12:25:53.411,0.08,0,0,-0.01,-0.02,-0.03,0.11,0.04
12:25:53.424,0.02,0,0.06,0,0,-0.07,-0.04,0
12:25:53.435,0.02,0,0.06,0,0,-0.07,-0.04,0
12:25:53.449,-0.04,-0.03,-0.02,0.01,0.04,0.28,-0.22,0
12:25:53.497,-0.01,-0.01,0.01,-0.01,0,-0.04,-0.07,-0.17
12:25:53.509,0.02,-0.01,-0.01,-0.01,0,-0.06,-0.07,0
12:25:53.519,0.02,-0.01,-0.01,-0.01,0,-0.06,-0.07,0
12:25:53.532,0.08,0.02,0.05,0,-0.01,-0.02,-0.06,0.05
12:25:53.545,-0.14,-0.02,-0.04,0,-0.01,-0.05,0,0.02
12:25:53.556,0.05,0,-0.03,-0.02,-0.01,0,0.09,0
12:25:53.602,-0.24,-0.02,0,-0.01,0,0.01,0.41,0.01
12:25:53.616,0.01,0,0.01,0,0,-0.08,-0.17,-0.05
12:25:53.628,-0.03,-0.01,0,0,-0.01,0.11,0.04,0.03
12:25:53.642,-0.03,-0.01,0,0,-0.01,0.11,0.04,0.03
12:25:53.655,0.01,-0.01,0.02,0,0.01,-0.04,-0.03,0
12:25:53.666,0.01,-0.01,-0.06,0.01,0.01,-0.01,0,-0.02
12:25:53.714,0.01,-0.01,-0.06,0.01,0.01,-0.01,0,-0.02
12:25:53.726,-0.03,-0.02,-0.01,0,-0.02,0.08,0,0.02
12:25:53.739,-0.33,-0.02,-0.03,-0.01,-0.01,-0.03,0.08,0
12:25:53.749,-0.13,-0.05,0,0,-0.01,-0.04,0.2,0.09
12:25:53.761,-0.13,-0.05,0,0,-0.01,-0.04,0.2,0.09
12:25:53.771,0.04,0,0.02,0.02,0,-0.02,0.14,0.12
12:25:53.813,0.04,0,-0.14,0,-0.01,-0.05,-0.08,-0.02
12:25:53.825,0.04,0,-0.14,0,-0.01,-0.05,-0.08,-0.02
12:25:53.838,0.12,-0.03,-0.03,-0.02,-0.04,-0.04,-0.15,-0.07
12:25:53.851,0.02,0,0.01,0,0.02,0.09,-0.11,0.04
12:25:53.862,0.02,0,0.01,0,0.02,0.09,-0.11,0.04
12:25:53.874,0,-0.01,0.03,0,0,-0.09,0.04,-0.02
12:25:53.917,0.07,0,0.01,0.02,0.01,0.02,-0.13,0.01
12:25:53.927,-0.03,0.02,0.05,0,0.01,-0.01,0.21,-0.03
12:25:53.941,-0.03,0.02,0.05,0,0.01,-0.01,0.21,-0.03
12:25:53.952,-0.15,0,-0.05,0,0,-0.16,-0.55,0.03
12:25:53.962,-0.15,0,-0.05,0,0,-0.16,-0.55,0.03
12:25:53.971,0.08,0.01,0.03,0,0,0.06,0.28,0.02
12:25:53.980,0.08,0.01,0.03,0,0,0.06,0.28,0.02
12:25:53.993,-0.12,-0.02,0,0,0,-0.02,-0.26,-0.05
12:25:54.041,-0.12,-0.02,0,0,0,-0.02,-0.26,-0.05
12:25:54.052,-0.4,-0.04,0.07,-0.01,0.03,0.02,0.13,0
12:25:54.066,0.02,0,-0.01,-0.01,-0.02,-0.04,-0.12,-0.05
12:25:54.078,0.22,0.02,0.08,0,-0.01,-0.04,-0.05,0.02
12:25:54.088,0.22,0.02,0.08,0,-0.01,-0.04,-0.05,0.02
12:25:54.096,0.06,0.02,0.02,0,-0.01,0.03,0.12,0.02
12:25:54.144,-0.06,0,-0.03,-0.01,-0.01,0,-0.04,0
12:25:54.154,0.17,0.01,-0.06,0,0,-0.03,0,0.02
12:25:54.164,-0.05,-0.03,-0.06,-0.02,-0.05,-0.1,-0.21,-0.04
12:25:54.175,-0.05,-0.03,-0.06,-0.02,-0.05,-0.1,-0.21,-0.04
12:25:54.187,-0.13,-0.01,-0.02,0,0.01,0.11,0.22,0
12:25:54.197,-0.13,-0.01,-0.02,0,0.01,0.11,0.22,0
12:25:54.206,0.02,0.01,0.01,0.01,0,-0.1,-0.04,0.02
12:25:54.256,-0.01,-0.01,0,-0.01,0,-0.09,0.08,-0.05
12:25:54.266,-0.01,-0.01,0,-0.01,0,-0.09,0.08,-0.05
12:25:54.278,0,0.01,-0.11,-0.01,0.01,0.03,0.08,0
12:25:54.292,0.06,0.01,-0.01,-0.01,-0.01,-0.02,-0.18,-0.02
12:25:54.305,0.06,0.01,-0.01,-0.01,-0.01,-0.02,-0.18,-0.02
12:25:54.366,-0.05,0,0.01,0,-0.02,-0.14,-0.34,0.03
12:25:54.379,-0.05,0,0.01,0,-0.02,-0.14,-0.34,0.03
12:25:54.390,0.16,0,0.01,0,0.02,0.2,0.21,0.02
12:25:54.406,-0.06,0,-0.04,-0.01,0,-0.08,-0.08,-0.05
12:25:54.423,-0.03,-0.02,0,-0.03,0,0.09,0.25,0
12:25:54.470,-0.1,0.01,0.05,0,0,-0.05,-0.07,-0.03
12:25:54.484,-0.1,0.01,0.05,0,0,-0.05,-0.07,-0.03
12:25:54.495,0.03,-0.01,-0.01,0,0.02,-0.12,0.03,0
12:25:54.505,0.03,-0.01,-0.01,0,0.02,-0.12,0.03,0
12:25:54.516,0.03,0,-0.01,0,-0.01,-0.03,-0.05,0
12:25:54.525,0.07,0,0,0,0,-0.01,-0.01,-0.01
12:25:54.534,-0.24,-0.02,-0.04,0,0.02,0.11,0.01,0
12:25:54.577,0,-0.01,0,0,-0.05,-0.03,-0.1,-0.02
12:25:54.589,0.05,0.02,-0.07,-0.02,-0.01,-0.1,0.05,-0.02
12:25:54.601,0.03,0,-0.17,0,-0.01,-0.05,0,-0.03
12:25:54.612,0.01,0,0.06,-0.02,-0.03,0,0.07,0
12:25:54.622,0.01,0,0.06,-0.02,-0.03,0,0.07,0
12:25:54.632,0.19,0,0.06,0.02,0.02,-0.17,-0.04,-0.01
12:25:54.641,0.02,-0.01,-0.03,-0.01,-0.01,0.07,-0.1,-0.02
12:25:54.686,-0.09,-0.01,0,-0.02,0,0.01,0.09,0
12:25:54.695,-0.04,-0.02,0.06,0,0,0.04,0.13,0
12:25:54.706,0.07,0,-0.02,-0.02,-0.03,-0.06,-0.12,0
12:25:54.718,-0.14,-0.03,-0.01,0,-0.02,0.07,0.05,0.01
12:25:54.728,-0.12,0.01,0.01,-0.01,0,0.03,0.16,-0.02
12:25:54.738,-0.12,0.01,0.01,-0.01,0,0.03,0.16,-0.02
12:25:54.747,-0.12,0.01,0.01,-0.01,0,0.03,0.16,-0.02
12:25:54.790,0.02,0,-0.13,-0.02,-0.03,-0.04,-0.07,0
12:25:54.802,0.02,0,-0.13,-0.02,-0.03,-0.04,-0.07,0
12:25:54.811,-0.46,-0.03,0,0,-0.01,-0.09,-0.14,-0.02
12:25:54.820,-0.46,-0.03,0,0,-0.01,-0.09,-0.14,-0.02
12:25:54.831,0.39,0.05,0.03,0,0,0.02,-0.01,0.01
12:25:54.848,0.06,-0.01,0.02,0,0.01,-0.03,0.02,0
12:25:54.859,0.05,-0.01,-0.02,-0.02,-0.04,-0.12,-0.14,0.01
12:25:54.901,-0.06,0,0,0,0.02,0.08,0.05,0
12:25:54.915,0.06,0,0.01,0,0.02,0.09,0.02,-0.02
12:25:54.927,0.06,0,0.01,0,0.02,0.09,0.02,-0.02
12:25:54.938,-0.24,-0.01,0.01,0,0.01,0.05,0.1,-0.01
12:25:54.947,-0.24,-0.01,0.01,0,0.01,0.05,0.1,-0.01
12:25:54.958,0.05,0,0,0,-0.01,-0.06,-0.23,0
12:25:54.973,-0.03,0,0.01,0,-0.01,-0.04,-0.12,-0.01
12:25:55.016,0.15,0.01,0,0.02,0.03,0.12,0.48,0.04
12:25:55.031,-0.01,-0.01,-0.01,0,0,0,-0.06,-0.04
12:25:55.044,-0.01,-0.01,-0.01,0,0,0,-0.06,-0.04
12:25:55.053,-0.06,-0.02,-0.01,-0.01,0,-0.02,-0.02,-0.05
12:25:55.062,-0.06,-0.02,-0.01,-0.01,0,-0.02,-0.02,-0.05
12:25:55.070,-0.06,-0.02,-0.01,-0.01,0,-0.02,-0.02,-0.05
12:25:55.080,-0.04,-0.01,0,0,-0.01,0.1,-0.02,-0.03
12:25:55.126,0.03,0,-0.02,-0.01,0,0,0.03,0
12:25:55.136,0,0,-0.02,0.01,-0.01,-0.02,-0.14,0
12:25:55.147,0,0,-0.02,-0.01,-0.01,0.04,-0.02,0
12:25:55.159,0,0,-0.02,-0.01,-0.01,0.04,-0.02,0
12:25:55.169,-0.05,-0.01,0,-0.02,-0.01,-0.07,-0.11,-0.01
12:25:55.179,-0.05,-0.01,0,-0.02,-0.01,-0.07,-0.11,-0.01
12:25:55.190,-0.07,-0.02,0,0,-0.01,0.01,0.08,0
12:25:55.237,0.01,0,-0.03,-0.01,0,-0.03,-0.03,0.03
12:25:55.248,0.01,0,-0.03,-0.01,0,-0.03,-0.03,0.03
12:25:55.261,-0.19,-0.01,0,0,0,0.09,0.06,-0.05
12:25:55.273,0.08,-0.01,-0.02,0,0,-0.05,-0.13,0
12:25:55.284,0.08,-0.01,-0.02,0,0,-0.05,-0.13,0
12:25:55.294,0.01,0.01,-0.02,0,0,0.08,0.11,0
12:25:55.344,-0.01,0,0.02,0.01,-0.02,-0.02,0,0.02
12:25:55.356,-0.39,0,-0.01,-0.02,0,-0.01,0.12,-0.02
12:25:55.367,-0.39,0,-0.01,-0.02,0,-0.01,0.12,-0.02
12:25:55.377,0.18,0,0,-0.01,-0.02,-0.04,-0.25,-0.08
12:25:55.387,0.08,0.02,0.01,0,-0.01,0.16,0.17,0.03
12:25:55.396,0.08,0.02,0.01,0,-0.01,0.16,0.17,0.03
12:25:55.404,0.05,0,0,-0.01,0,-0.08,0.02,0.02
12:25:55.446,0.01,-0.02,-0.02,0,0.01,0.07,0.13,0
12:25:55.456,0.01,-0.02,-0.02,0,0.01,0.07,0.13,0
12:25:55.465,0.01,-0.02,-0.02,0,0.01,0.07,0.13,0
12:25:55.477,0.05,0,0,-0.02,-0.01,0.01,0.01,0.01
12:25:55.488,0.05,0,0,-0.02,-0.01,0.01,0.01,0.01
12:25:55.498,0,0.01,-0.14,0,0.01,0.02,-0.06,0
12:25:55.508,0.02,0,0,-0.01,0,0,0,0.01
12:25:55.517,-0.01,0,0.03,0,0,0.03,-0.04,-0.02
12:25:55.561,0.07,0,0,0,0.01,0.1,0.17,0.03
12:25:55.571,-0.05,0,0,0,-0.02,0.15,0.06,-0.02
12:25:55.581,0.03,0,0,0,-0.02,-0.03,0,0.01
12:25:55.595,0.01,-0.01,0.04,0,-0.02,0.02,-0.1,0
12:25:55.608,0.01,-0.01,0.04,0,-0.02,0.02,-0.1,0
12:25:55.620,0,0,-0.09,-0.02,-0.04,0.04,0.07,-0.05
12:25:55.666,-0.01,-0.01,0.02,-0.01,-0.01,-0.14,-0.1,-0.01
12:25:55.679,0.09,0,0.01,-0.01,-0.01,-0.04,0.03,0.03
12:25:55.690,0.06,0.03,-0.01,0.01,-0.01,0.26,0.07,0
12:25:55.703,-0.05,-0.02,-0.01,0,0,-0.04,-0.07,-0.02
12:25:55.715,-0.04,0,0,-0.01,-0.02,-0.25,-0.06,-0.03
12:25:55.727,-0.04,0,0,-0.01,-0.02,-0.25,-0.06,-0.03
12:25:55.737,-0.04,-0.01,0,0,0,-0.11,-0.08,-0.03
12:25:55.776,-0.02,0,0.01,0,0.01,0.01,0.02,0
12:25:55.788,-0.02,0,0.01,0,0.01,0.01,0.02,0
12:25:55.800,0.09,0.01,0,-0.01,0,0.12,0.03,0.01
12:25:55.814,0,0.02,-0.02,0,0,-0.18,-0.12,0.02
12:25:55.825,0.08,0,0.04,-0.01,0,0.06,0.01,0.03
12:25:55.835,-0.06,-0.01,-0.02,0,-0.03,-0.07,-0.21,-0.04
12:25:55.844,0.04,-0.01,0,-0.01,0.02,0.08,0.1,0.01
12:25:55.888,-0.25,-0.01,-0.02,-0.02,-0.02,0.04,0.13,0
12:25:55.899,-0.02,0,0,0.01,0.01,-0.06,-0.12,0.01
12:25:55.911,-0.04,0,0,0,-0.04,0.13,-0.34,-0.04
12:25:55.924,0.1,0,-0.01,0,0,-0.01,0,-0.01
12:25:55.934,0.1,0,-0.01,0,0,-0.01,0,-0.01
12:25:55.943,0.01,0,0,0,-0.01,0,0,0
12:25:55.953,0.05,-0.02,-0.01,-0.01,0,0.18,0.09,0
12:25:56.002,-0.13,0,0.02,0,-0.02,0.1,0.03,0.01
12:25:56.012,-0.13,0,0.02,0,-0.02,0.1,0.03,0.01
12:25:56.027,0.08,0.02,0,-0.01,0,-0.11,-0.05,0
12:25:56.039,0.06,0,0,-0.01,0,-0.02,-0.13,0.01
12:25:56.049,0.06,0,0,-0.01,0,-0.02,-0.13,0.01
12:25:56.058,-0.04,-0.02,0,-0.01,-0.03,0,0.05,-0.06
12:25:56.102,0.02,0,0,0,0,-0.02,0.02,-0.01
12:25:56.115,-0.05,-0.01,-0.01,0,0.01,0.09,-0.07,0
12:25:56.125,-0.05,-0.01,-0.01,0,0.01,0.09,-0.07,0
12:25:56.137,0.04,-0.01,0,0,0,0,0.02,0.02
12:25:56.148,0.04,-0.01,0,0,0,0,0.02,0.02
12:25:56.158,-0.02,-0.02,0.01,0,-0.01,0.2,-0.05,-0.03
12:25:56.167,-0.02,-0.02,0.01,0,-0.01,0.2,-0.05,-0.03
12:25:56.212,0.02,0.03,0,0,-0.02,0.06,0.1,-0.02
12:25:56.224,0.02,0.03,0,0,-0.02,0.06,0.1,-0.02
12:25:56.233,0.02,0.03,0,0,-0.02,0.06,0.1,-0.02
12:25:56.246,0,0,0.01,0.02,0.02,-0.28,0.1,0.04
12:25:56.258,-0.07,-0.03,-0.02,0,-0.02,-0.01,0.08,-0.02
12:25:56.269,-0.07,-0.03,-0.02,0,-0.02,-0.01,0.08,-0.02
12:25:56.279,0.03,0.01,0,0,-0.01,0.3,0.07,0.03
12:25:56.323,0.04,-0.02,0,0.01,0,-0.16,-0.04,0.1
12:25:56.334,0.06,0.01,-0.01,0,0.01,0.19,0.09,0.03
12:25:56.346,0.06,0.01,-0.01,0,0.01,0.19,0.09,0.03
12:25:56.357,-0.02,0.04,0.01,0,-0.02,-0.29,-0.01,0.06
12:25:56.368,0.09,-0.06,0,-0.01,-0.02,0.31,-0.02,0.02
12:25:56.377,0,-0.06,0,0,-0.01,0.03,-0.02,0
12:25:56.389,-0.08,-0.01,-0.01,-0.01,0,-0.06,-0.06,-0.04
12:25:56.442,0.01,0.01,0,0,-0.01,0.21,-0.03,0.02
12:25:56.452,0.03,-0.05,0.01,-0.02,0,0.46,0.06,-0.03
12:25:56.464,0.03,-0.05,0.01,-0.02,0,0.46,0.06,-0.03
12:25:56.476,-0.05,0,-0.02,0,0.01,-0.21,-0.15,-0.04
12:25:56.487,-0.05,0,-0.02,0,0.01,-0.21,-0.15,-0.04
12:25:56.496,0.12,-0.01,0,0.01,0,0.06,0.02,0.03
12:25:56.543,-0.03,-0.03,0,0,0,0.2,-0.09,0.01
12:25:56.552,-0.05,-0.05,-0.07,-0.03,-0.04,-0.13,-0.19,0.01
12:25:56.563,-0.13,0,0,0,0.02,-0.22,-0.04,-0.05
12:25:56.575,0.06,-0.01,0,-0.02,-0.02,0,0.07,0
12:25:56.587,0.06,-0.01,0,-0.02,-0.02,0,0.07,0
12:25:56.603,-0.01,0.03,0,-0.02,-0.03,-0.16,0.09,0
12:25:56.662,-0.25,-0.03,0,-0.01,0.02,0.02,0.02,-0.02
12:25:56.678,0.07,0,-0.01,0,-0.02,0.07,-0.05,-0.11
12:25:56.691,-0.03,0,0.01,0.01,0,-0.02,0,0.06
12:25:56.703,0.02,-0.02,-0.04,0,0.01,-0.5,-0.05,0.05
12:25:56.717,0.04,0.12,0.01,-0.01,0,0.29,0.05,0.05
12:25:56.759,-0.03,-0.06,0,0,0,0.23,-0.01,-0.09
12:25:56.770,-0.03,-0.06,0,0,0,0.23,-0.01,-0.09
12:25:56.780,0,-0.07,0.01,-0.01,0,-0.05,0.03,0
12:25:56.790,0,-0.07,0.01,-0.01,0,-0.05,0.03,0
12:25:56.801,0.1,0,0,0,0.01,-0.09,0.13,0.02
12:25:56.812,-0.48,-0.03,-0.15,-0.03,-0.06,0.06,-0.11,-0.14
12:25:56.824,-0.01,-0.02,0,0.02,-0.01,0.01,0.01,0.09
12:25:56.865,0,0.15,0.01,0,0,-0.03,0,-0.01
12:25:56.877,0.01,-0.05,0.03,0,0.03,0.09,-0.12,0
12:25:56.888,0.01,-0.05,0.03,0,0.03,0.09,-0.12,0
12:25:56.898,-0.07,-0.05,0.01,0,-0.03,0.01,0.08,0.02
12:25:56.910,-0.07,-0.05,0.01,0,-0.03,0.01,0.08,0.02
12:25:56.922,-0.18,-0.28,-0.1,-0.01,0,-0.03,0.12,-0.01
12:25:56.934,0.1,0.02,0.06,0,0,-0.04,0.2,-0.01
12:25:56.973,0.07,-0.19,0,-0.01,-0.03,-0.12,-0.05,-0.02
12:25:56.983,0.05,0.05,-0.04,-0.01,-0.04,0,-0.06,0.02
12:25:56.993,0.04,-0.02,-0.02,0,-0.01,-0.4,-0.09,-0.02
12:25:57.003,0.09,0.07,0,0,0.02,-0.05,-0.21,-0.07
12:25:57.012,0.09,0.07,0,0,0.02,-0.05,-0.21,-0.07
12:25:57.023,-0.01,0.08,0.02,0,0,-0.01,0.02,-0.01
12:25:57.033,-0.01,0.08,0.02,0,0,-0.01,0.02,-0.01
12:25:57.046,-0.04,-0.16,0,0,0.01,0.1,0,0
12:25:57.095,0,0.03,0.03,-0.01,-0.04,0.03,-0.24,0
12:25:57.107,-0.05,0.09,0.01,0,0,0.07,-0.04,-0.05
12:25:57.117,-0.51,-0.01,0.04,0,0,-0.2,-0.01,-0.01
12:25:57.129,0.05,0.1,0,0.01,0,-0.08,0.23,0
12:25:57.140,-0.06,0.01,0,-0.01,-0.01,0.01,-0.13,-0.04
12:25:57.150,0.11,0.01,-0.01,0,0,-0.18,0.05,0.05
12:25:57.196,-0.04,0.12,0.02,0,0.01,0,0.07,-0.03
12:25:57.209,-0.04,0.12,0.02,0,0.01,0,0.07,-0.03
12:25:57.221,-0.18,0,0.04,-0.01,-0.01,-0.08,-0.03,-0.02
12:25:57.234,-0.07,0.07,-0.01,0,0,-0.04,0.08,0.03
12:25:57.247,0.1,-0.03,-0.04,0,0,-0.07,-0.07,0.02
12:25:57.257,0.11,0.08,0,0,0.02,0.12,-0.04,0
12:25:57.304,-0.09,-0.05,-0.01,0,-0.01,0.06,0.06,0
12:25:57.318,-0.24,0.05,-0.06,-0.02,-0.03,-0.13,-0.15,-0.26
12:25:57.327,-0.24,0.05,-0.06,-0.02,-0.03,-0.13,-0.15,-0.26
12:25:57.339,0,0.31,0.03,0,0,0.03,0.08,0.03
12:25:57.353,0.2,-0.13,-0.01,-0.01,0,-0.23,0.1,0.01
12:25:57.366,0,-0.18,-0.02,-0.01,-0.02,-0.02,0.03,0.04
12:25:57.375,0.07,-0.03,-0.01,0,0,0.05,-0.24,0.06
12:25:57.421,0.02,-0.01,-0.02,-0.03,-0.01,0.05,0.12,0.06
12:25:57.436,0.06,-0.13,0.03,0,-0.03,0.61,0,0.02
12:25:57.448,0.06,-0.13,0.03,0,-0.03,0.61,0,0.02
12:25:57.457,0.06,-0.13,0.03,0,-0.03,0.61,0,0.02
12:25:57.465,0.14,0.02,-0.02,0,0.01,-0.25,-0.01,0.07
12:25:57.477,0,0.03,-0.01,-0.01,-0.01,-0.02,0.05,-0.06
12:25:57.523,-0.01,-0.08,0,0.01,0.05,-0.03,0,0
12:25:57.537,0.01,-0.04,0.04,0,0,0.19,0.03,0.05
12:25:57.552,0,-0.21,-0.01,0,0,-0.14,0.02,0
12:25:57.565,-0.01,-0.04,-0.02,0,-0.01,-0.08,0.16,-0.12
12:25:57.577,0.01,0.04,0.03,0,0.01,0.03,0.13,0.01
12:25:57.588,0.02,0.1,0,0.01,0.01,-0.15,-0.1,0.07
12:25:57.640,-0.02,0.01,-0.01,0,0.02,-0.13,0.15,-0.02
12:25:57.650,0.04,-0.09,-0.01,0,0,0.15,0.11,0.04
12:25:57.663,0.04,0.04,0.02,0,-0.02,0.05,0.05,0.01
12:25:57.678,0.06,0.02,-0.01,-0.02,-0.02,-0.06,-0.06,0.01
12:25:57.688,0.06,0.02,-0.01,-0.02,-0.02,-0.06,-0.06,0.01
12:25:57.698,0.28,0.08,-0.01,0,0,-0.04,-0.18,0.01
12:25:57.740,-0.12,0.07,-0.02,-0.02,-0.03,-0.02,-0.08,-0.18
12:25:57.750,-0.12,0.07,-0.02,-0.02,-0.03,-0.02,-0.08,-0.18
12:25:57.760,-0.04,-0.12,0,-0.02,0,-0.1,0.02,0.06
12:25:57.772,-0.04,-0.12,0,-0.02,0,-0.1,0.02,0.06
12:25:57.784,0,0.03,0,0,0,0.04,-0.04,0.07
12:25:57.795,0,0.03,0,0,0,0.04,-0.04,0.07
12:25:57.806,0.04,0.06,-0.01,-0.01,0,-0.1,0.15,-0.02
12:25:57.853,-0.01,0,0.03,0,0.03,0.14,0,-0.01
12:25:57.864,0.02,-0.01,-0.01,0,-0.02,0.04,0.18,0.08
12:25:57.875,0.02,-0.01,-0.01,0,-0.02,0.04,0.18,0.08
12:25:57.886,0.12,-0.04,-0.02,0,-0.01,0.02,0.06,0.03
12:25:57.896,0.12,-0.04,-0.02,0,-0.01,0.02,0.06,0.03
12:25:57.907,0.03,-0.19,-0.03,0,0.01,0.08,0,0.02
12:25:57.919,-0.6,-0.05,0,0.02,0,0.14,-0.06,-0.06
12:25:57.968,0.05,0.09,0,0,0,0.04,0.12,-0.01
12:25:57.978,0.1,-0.09,0,0.01,0.02,-0.01,0.16,0.08
12:25:57.990,-0.05,0.29,0.02,-0.03,-0.06,-0.01,0.25,-0.06
12:25:58.002,0.02,-0.03,0.03,0,0,0.35,0.01,-0.01
12:25:58.013,0.02,-0.03,0.03,0,0,0.35,0.01,-0.01
12:25:58.024,0.03,-0.05,-0.03,-0.01,-0.01,0.04,0,-0.09
12:25:58.066,-0.11,0.03,0.04,-0.01,-0.02,-0.24,-0.03,0.01
12:25:58.077,-0.11,0.03,0.04,-0.01,-0.02,-0.24,-0.03,0.01
12:25:58.087,0.17,0.45,-0.16,-0.01,0.01,0.01,0.07,0.01
12:25:58.100,-0.04,-0.03,-0.02,0,-0.02,-0.06,0.04,-0.09
12:25:58.110,0.1,-0.12,0.03,0.01,0.02,-0.13,-0.11,0.11
12:25:58.122,0.02,0.02,0,-0.02,-0.05,0.06,-0.01,-0.02
12:25:58.135,0.02,-0.05,0,0,0.01,0.02,0.07,0
12:25:58.182,-0.08,-0.37,-0.03,-0.01,-0.01,0,0.05,-0.01
12:25:58.192,-0.08,-0.37,-0.03,-0.01,-0.01,0,0.05,-0.01
12:25:58.205,0.06,-0.3,-0.04,-0.01,-0.01,0.01,-0.15,-0.05
12:25:58.217,0.07,-0.14,-0.02,0,0,0.23,0.01,-0.02
12:25:58.226,-0.01,-0.11,0,0.01,0,-0.19,0.13,0.02
12:25:58.235,-0.01,-0.11,0,0.01,0,-0.19,0.13,0.02
12:25:58.247,-0.32,-0.09,0,0,0.01,0.1,0,-0.02
12:25:58.293,0.09,-0.01,0,0,0,0.09,0.03,0.05
12:25:58.303,0.1,0,0,0,0.01,-0.03,-0.08,0.1
12:25:58.314,0.1,0,0,0,0.01,-0.03,-0.08,0.1
12:25:58.326,0.06,-0.07,-0.08,-0.01,-0.01,0.02,-0.2,-0.06
12:25:58.337,0.02,-0.09,0,0,0,-0.27,0.01,0
12:25:58.347,-0.27,0.16,-0.08,0.01,0,0.33,0.2,-0.01
12:25:58.357,0.12,-0.28,0.06,0.01,0,-0.12,0.09,0
12:25:58.403,0.03,0,0,-0.02,-0.03,0.11,0.11,-0.05
12:25:58.414,0.03,0,0,-0.02,-0.03,0.11,0.11,-0.05
12:25:58.426,0.23,0.08,0.05,0,0,-0.08,-0.18,-0.06
12:25:58.437,0.23,0.08,0.05,0,0,-0.08,-0.18,-0.06
12:25:58.447,0.08,-0.02,0,-0.02,-0.03,-0.07,-0.21,-0.02
12:25:58.457,-0.06,0.16,-0.02,0.01,-0.01,-0.07,-0.07,0
12:25:58.466,0,-0.04,0,0,0.03,0.01,0.07,-0.03
12:25:58.508,0.04,-0.03,0,0.01,-0.01,0.12,0,0.05
12:25:58.518,-0.28,0,0.03,-0.01,0,0.18,0.11,-0.03
12:25:58.528,-0.12,-0.24,-0.04,-0.01,-0.03,0.18,0.13,0.04
12:25:58.540,0.12,-0.63,-0.05,0,0,-0.12,-0.06,0.01
12:25:58.550,0.12,-0.63,-0.05,0,0,-0.12,-0.06,0.01
12:25:58.560,-0.05,-0.06,0,0,0,0.18,0.01,0.02
12:25:58.569,-0.05,-0.06,0,0,0,0.18,0.01,0.02
12:25:58.578,0,-0.02,-0.01,0,0,-0.03,0.17,0.04
12:25:58.621,0.08,0.21,0,0,-0.03,0.02,0.15,-0.13
12:25:58.630,0.08,0.21,0,0,-0.03,0.02,0.15,-0.13
12:25:58.641,-0.02,0.15,0.02,0,-0.03,-0.1,0,0
12:25:58.657,0.08,-0.27,0.03,0,0.01,-0.03,-0.23,-0.01
12:25:58.678,0.14,0.04,-0.02,0.01,0.02,0.05,0.06,0.07
12:25:58.691,0.09,-0.03,0.02,0,0,0.25,0.07,0.06
12:25:58.749,0.22,0.13,0.03,0,0.01,-0.01,0.06,-0.04
12:25:58.761,0.22,0.13,0.03,0,0.01,-0.01,0.06,-0.04
12:25:58.774,0,-0.13,0.01,-0.01,0,-0.05,-0.14,0.15
12:25:58.786,-0.15,-0.01,0,0,-0.03,0,0.07,0
12:25:58.797,-0.1,0.01,-0.02,-0.01,0,-0.27,-0.04,0
12:25:58.852,0.07,-0.28,0.01,-0.01,-0.02,-0.1,-0.16,-0.03
12:25:58.861,0.14,-0.03,-0.01,0,0,0.31,0.06,0
12:25:58.873,0.14,-0.03,-0.01,0,0,0.31,0.06,0
12:25:58.883,-0.07,-0.14,-0.03,0,0,-0.04,-0.01,0.02
12:25:58.893,-0.07,-0.14,-0.03,0,0,-0.04,-0.01,0.02
12:25:58.904,-0.18,-0.03,-0.02,-0.01,-0.01,-0.05,-0.04,-0.05
12:25:58.946,-0.03,0.05,0.02,0,0.04,-0.22,0.03,0.03
12:25:58.956,-0.03,0.05,0.02,0,0.04,-0.22,0.03,0.03
12:25:58.968,-0.01,-0.09,0,-0.01,-0.02,-0.01,0.08,-0.02
12:25:58.982,-0.02,0.01,0,0,0,-0.23,-0.18,0
12:25:58.991,-0.02,0.01,0,0,0,-0.23,-0.18,0
12:25:59.000,-0.02,0.01,0,0,0,-0.23,-0.18,0
12:25:59.011,0,-0.13,-0.01,0,0,0.14,-0.02,-0.01
12:25:59.054,0.32,0.07,0,0,0,0.01,0.03,0
12:25:59.065,-0.2,0.46,0.02,-0.01,-0.03,0.04,-0.08,0
12:25:59.080,-0.1,-0.11,-0.01,-0.02,-0.02,0.01,-0.23,-0.02
12:25:59.091,-0.01,0.01,0,0,-0.02,0.2,0.03,-0.03
12:25:59.102,0.04,0.06,0,0,0,-0.04,-0.02,-0.01
12:25:59.111,0.04,0.06,0,0,0,-0.04,-0.02,-0.01
12:25:59.121,-0.05,-0.03,0.09,0,0,-0.09,-0.02,-0.03
12:25:59.169,0.09,0,-0.01,-0.02,0.01,0.05,0,0
12:25:59.180,0.09,0,-0.01,-0.02,0.01,0.05,0,0
12:25:59.194,0,0.03,0,-0.02,-0.04,-0.18,-0.11,0
12:25:59.204,-0.12,-0.59,-0.04,0,-0.01,0.26,0,-0.04
12:25:59.213,-0.12,-0.59,-0.04,0,-0.01,0.26,0,-0.04
12:25:59.223,-0.03,-0.04,0,0,0.02,0.21,0.2,0.01
12:25:59.232,0.02,0.13,-0.08,0.01,0.01,-0.11,-0.08,0.03
12:25:59.275,-0.02,0.09,0.04,0.02,0.02,-0.12,-0.02,0
12:25:59.287,-0.08,0.26,-0.01,0,0,-0.05,0.01,-0.06
12:25:59.297,-0.08,0.26,-0.01,0,0,-0.05,0.01,-0.06
12:25:59.306,0.13,0.09,0,0,0,0.24,0.04,0.01
12:25:59.318,-0.04,0.17,-0.01,-0.02,-0.01,-0.1,0.04,0
12:25:59.330,-0.66,-0.07,-0.07,0,-0.01,0.01,-0.03,-0.02
12:25:59.342,0.18,-0.17,0.06,0,-0.01,-0.13,0.03,0
12:25:59.384,0.12,0.05,-0.01,-0.02,-0.03,-0.36,0.09,0.07
12:25:59.398,0.12,0.05,-0.01,-0.02,-0.03,-0.36,0.09,0.07
12:25:59.408,-0.28,-0.05,0.01,0,0.02,-0.23,0,-0.04
12:25:59.419,-0.28,-0.05,0.01,0,0.02,-0.23,0,-0.04
12:25:59.427,0.17,0,0.01,0,-0.01,0.16,0.17,0.04
12:25:59.439,0.1,0.14,-0.02,0,0.01,0.08,0.06,0.01
12:25:59.453,0.11,0.04,0.01,-0.01,0,-0.03,-0.06,-0.03
12:25:59.499,0.07,-0.08,-0.01,0,-0.03,-0.2,-0.16,0.01
12:25:59.512,0.1,0.08,-0.04,0,0,-0.19,-0.13,-0.04
12:25:59.526,-0.02,-0.05,0.02,0,0.01,0,-0.01,0
12:25:59.535,-0.02,-0.05,0.02,0,0.01,0,-0.01,0
12:25:59.545,0.04,-0.06,0,-0.01,-0.03,0.02,-0.12,-0.02
12:25:59.557,0.09,0.24,-0.29,-0.03,-0.02,-0.01,-0.06,0
12:25:59.599,0.13,-0.28,0.09,-0.01,0,0.08,0.15,-0.02
12:25:59.614,-0.03,-0.04,0.03,-0.03,-0.01,-0.06,-0.3,-0.03
12:25:59.627,-0.33,0.23,0.05,0.01,0,0.31,0,0.01
12:25:59.638,-0.33,0.23,0.05,0.01,0,0.31,0,0.01
12:25:59.649,-0.03,-0.12,-0.03,0,-0.01,-0.14,0,-0.02
12:25:59.659,-0.03,-0.12,-0.03,0,-0.01,-0.14,0,-0.02
12:25:59.716,-0.31,0.04,0.06,0.01,0,0.36,0.16,-0.01
12:25:59.726,0.19,-0.09,0.01,0,0,-0.22,0.09,0.04
12:25:59.738,0.19,-0.09,0.01,0,0,-0.22,0.09,0.04
12:25:59.749,0,0.01,0,0,0.02,0.11,0.08,0
12:25:59.762,0.04,-0.08,0.04,0.02,0.02,-0.06,-0.05,0.02
12:25:59.771,0.04,-0.08,0.04,0.02,0.02,-0.06,-0.05,0.02
12:25:59.780,0.03,0,0.03,-0.02,-0.04,-0.06,-0.02,0
12:25:59.822,-0.09,-0.17,0.06,0,0,0.01,0.15,-0.01
12:25:59.832,0,-0.07,0,0,-0.01,-0.13,0.21,0.03
12:25:59.843,0.11,-0.13,0,-0.01,0,-0.12,-0.03,0
12:25:59.854,0.11,-0.13,0,-0.01,0,-0.12,-0.03,0
12:25:59.865,-0.19,0.06,-0.01,0,0,0.12,-0.19,-0.08
12:25:59.878,-0.19,0.06,-0.01,0,0,0.12,-0.19,-0.08
12:25:59.888,0.06,0.62,0.02,-0.01,-0.03,-0.19,0.04,-0.01
12:25:59.943,0.16,-0.04,0,-0.02,0,-0.08,0.05,0.03
12:25:59.955,0.17,0.04,0.01,0,-0.01,-0.06,-0.09,-0.01
12:25:59.967,0.16,0.19,-0.03,-0.02,-0.03,0.09,-0.23,-0.03
12:25:59.978,0.16,0.19,-0.03,-0.02,-0.03,0.09,-0.23,-0.03
12:25:59.991,0.01,-0.18,0,0.01,0.01,-0.03,0.09,0.02
12:26:00.047,-0.06,-0.08,0.05,0.01,0,-0.11,0.07,0
12:26:00.060,-0.19,-0.24,-0.05,-0.01,0,0.21,-0.06,-0.07
12:26:00.074,-0.08,-0.22,-0.01,0,0,-0.31,-0.27,0
12:26:00.084,-0.22,-0.03,0.05,0,-0.02,-0.02,0,-0.02
12:26:00.094,-0.22,-0.03,0.05,0,-0.02,-0.02,0,-0.02
12:26:00.104,0.02,0.08,0,0,0.01,-0.12,0.18,0.05
12:26:00.147,-0.21,0.08,-0.04,-0.01,0,0.06,0.05,-0.03
12:26:00.156,-0.21,0.08,-0.04,-0.01,0,0.06,0.05,-0.03
12:26:00.165,0.05,0.29,-0.09,-0.02,0,0.19,0.05,-0.04
12:26:00.177,0.11,-0.02,-0.01,0,-0.04,-0.16,-0.1,0
12:26:00.189,0.09,0.07,0.02,-0.01,0,0.12,-0.01,0.02
12:26:00.198,0.09,0.07,0.02,-0.01,0,0.12,-0.01,0.02
12:26:00.207,0.01,0.18,0,0,-0.01,-0.18,-0.34,-0.02
12:26:00.218,0.1,0.05,-0.02,-0.03,-0.02,-0.32,-0.03,-0.01
12:26:00.262,0.09,-0.1,0.04,0,-0.02,-0.13,0.07,0
12:26:00.274,-0.02,-0.19,0.01,-0.01,-0.03,0.21,0.08,0
12:26:00.289,-0.2,0.04,-0.16,0,0,-0.13,0,0
12:26:00.307,-0.1,0.1,0.01,-0.01,0,0.13,0.01,-0.06
12:26:00.320,-0.1,0.1,0.01,-0.01,0,0.13,0.01,-0.06
12:26:00.365,0.19,-0.14,-0.05,0,0,-0.12,0.06,0
12:26:00.375,0.01,-0.09,0.06,0,-0.01,-0.09,-0.15,-0.01
12:26:00.387,0.31,0,0.05,0.01,0.05,0.05,-0.01,0.04
12:26:00.397,0.31,0,0.05,0.01,0.05,0.05,-0.01,0.04
12:26:00.411,0.08,0.2,0.02,-0.02,-0.04,-0.21,-0.15,-0.02
12:26:00.424,-0.23,0.04,0.03,0,0,-0.16,-0.08,-0.05
12:26:00.435,0.09,-0.21,0.01,0.04,0,0.62,0.17,0.01
12:26:00.481,0.07,-0.07,-0.02,-0.02,-0.01,-0.01,-0.27,0
12:26:00.492,-0.07,0.12,0.08,0.01,0.01,0.05,0.04,0.01
12:26:00.503,0.06,-0.31,-0.02,0,0,-0.07,-0.09,0.01
12:26:00.514,0.06,-0.31,-0.02,0,0,-0.07,-0.09,0.01
12:26:00.526,0.01,0.97,0.14,0,0.01,0.13,0.06,0
12:26:00.538,-0.01,0.01,0.01,-0.01,0,-0.13,0.04,0.02
12:26:00.547,-0.32,-0.03,0.04,-0.02,-0.01,-0.05,0.04,-0.05
12:26:00.590,0.19,0.26,0.01,0,0,-0.02,-0.05,0
12:26:00.600,0.19,0.26,0.01,0,0,-0.02,-0.05,0
12:26:00.610,0,0.02,-0.12,-0.02,-0.01,0.21,-0.03,0
12:26:00.623,-0.07,0.33,0.02,0,-0.03,-0.15,-0.36,0
12:26:00.635,-0.07,0.33,0.02,0,-0.03,-0.15,-0.36,0
12:26:00.647,-0.1,-0.12,-0.01,0,0.02,0.22,0.39,0
12:26:00.699,-0.33,0.02,0,0,0,-0.12,0,0
12:26:00.711,0.06,-0.23,-0.03,0,0.03,-0.05,-0.07,0
12:26:00.729,0.04,0.15,-0.03,0,0,0.01,0.06,-0.01
12:26:00.741,0.08,0.06,0,0,0,0.21,0.14,0.02
12:26:00.753,-0.16,0.56,0.02,0.02,0.02,-0.11,0,0.04
12:26:00.765,0.36,-0.32,0.02,-0.02,-0.01,0.02,-0.1,-0.02
12:26:00.812,-0.02,-0.19,-0.03,-0.01,0,0.11,-0.3,-0.03
12:26:00.822,-0.02,-0.19,-0.03,-0.01,0,0.11,-0.3,-0.03
12:26:00.833,-0.04,-0.15,0,0,0.02,0.05,0.05,0
12:26:00.843,-0.04,-0.15,0,0,0.02,0.05,0.05,0
